1.060660171779821276e-01
1.184527913424238271e-01
1.306382655688495542e-01
1.425517624255343563e-01
1.541237942723149013e-01
1.652865684825397530e-01
1.759744808179847797e-01
1.861245932120915436e-01
1.956770923347933566e-01
2.045757254578202122e-01
2.127682103116065593e-01
2.202066158224484371e-01
2.268477108398594955e-01
2.326532782074675620e-01
2.375903917944119370e-01
2.416316543860341226e-01
2.447553946305438821e-01
2.469458215500104359e-01
2.481931354470953699e-01
2.484935943709341288e-01
2.478495356439534003e-01
2.462693522935896773e-01
2.437674245762376235e-01
2.403640071226779140e-01
2.360850725720960996e-01
2.309621128930297029e-01
2.250318999116302510e-01
2.183362068780421994e-01
2.109214931981063523e-01
2.028385547377284659e-01
1.941421423689656534e-01
1.848905516681814132e-01
1.751451868956542257e-01
1.649701025811237953e-01
1.544315262094289043e-01
1.435973656433406631e-01
1.325367050358239596e-01
1.213192930704014849e-01
1.100150274253739041e-01
9.869343938494819224e-02
8.742318251762218329e-02
7.627152930949973597e-02
6.530387957781667863e-02
5.458328439831654916e-02
4.416998915994255204e-02
3.412099921251569856e-02
2.448967139879194843e-02
1.532533456286383489e-02
6.672941903822490750e-03
-1.427242201362158291e-03
-8.939918546787883891e-03
-1.583499054243614479e-02
-2.208776097775140557e-02
-2.767908663926560431e-02
-3.259548964111110003e-02
-3.682922465949432789e-02
-4.037830160058390738e-02
-4.324646357318030765e-02
-4.544312038039256818e-02
-4.698323808569603716e-02
-4.788718554559825979e-02
-4.818053913110003500e-02
-4.789384718068894625e-02
-4.706235603628877717e-02
-4.572569980804246093e-02
-4.392755629178068250e-02
-4.171527172238901487e-02
-3.913945728505543314e-02
-3.625356052272093316e-02
-3.311341497032080361e-02
-2.977677151311558523e-02
-2.630281510629819616e-02
-2.275167060504944619e-02
-1.918390153744913007e-02
-1.566000570649189044e-02
-1.223991153149346992e-02
-8.982479033230197918e-03
-5.945009331257702923e-03
-3.182766456305913261e-03
-7.485151859263836083e-04
1.307921511591619845e-03
2.940081990669932144e-03
4.105259141881562046e-03
4.764864249994615886e-03
4.884758666643479463e-03
4.435550714792749205e-03
3.392855509106645906e-03
1.737515661071678541e-03
-5.442188619517590586e-04
-3.460553140950201056e-03
-7.014053065427572342e-03
-1.120159520927249686e-02
-1.601436124327519639e-02
-2.143787696318605329e-02
-2.745209566950024271e-02
-3.403152529441554053e-02
-4.114539833527094959e-02
-4.875788332477890008e-02
-5.682833624905997416e-02
-6.531159001730478531e-02
-7.415827979417843885e-02
-8.331520173010124874e-02
-9.272570236737903704e-02
-1.023300957638124398e-01
-1.120661051616694825e-01
-1.218693258404292268e-01
-1.131673705627915805e+00
1.358587960592377186e+00
-1.151016473851213862e+00
3.395809814747879907e-01
-1.695520594703825712e-01
-1.783488713316405128e-01
-1.867441241256520279e-01
-1.946743807725853648e-01
-2.020785815873670788e-01
-2.088985120238387450e-01
-2.150792500915936767e-01
-2.205695900190753900e-01
-2.253224389165287000e-01
-2.292951833972721176e-01
-2.324500233439049657e-01
-2.347542702557622041e-01
-2.361806078832497380e-01
-2.367073131415912690e-01
-2.363184355987966723e-01
-2.350039341479997768e-01
-2.327597698003180948e-01
-2.295879538685489663e-01
-2.254965511517886823e-01
-2.204996380738410422e-01
-2.146172160714573951e-01
-2.078750808693778929e-01
-2.003046486152400552e-01
-1.919427401760981922e-01
-1.828313252170475356e-01
-1.730172279888326226e-01
-1.625517970429996018e-01
-1.514905413678973023e-01
-1.398927356945213196e-01
-1.278209979559182530e-01
-1.153408420957705294e-01
-1.025202096093030951e-01
-8.942898336130679360e-02
-7.613848736066720913e-02
-6.272097627726487545e-02
-4.924911856466678006e-02
-3.579547710007174866e-02
-2.243199127114091709e-02
-9.229464427479398825e-03
3.742939427236711969e-03
1.641818589789279664e-02
2.873184371117115665e-02
4.062253790397697684e-02
5.203237926767428911e-02
6.290736681090999816e-02
7.319776021065818594e-02
8.285841945111979689e-02
9.184910910146358576e-02
1.001347649542209811e-01
1.076857210343158122e-01
1.144778952920684212e-01
1.204929326097077119e-01
1.257183040775505245e-01
1.301473618305543645e-01
1.337793490758653614e-01
1.366193652846683926e-01
1.386782868644662881e-01
1.399726439682608403e-01
1.405244544323685230e-01
1.403610161622121100e-01
1.395146596028832287e-01
1.380224622361398978e-01
1.359259273354530562e-01
1.332706294835298289e-01
1.301058296103368705e-01
1.264840625420725895e-01
1.224607002610289402e-01
1.180934942612295036e-01
1.134421005437208502e-01
1.085675909272114242e-01
1.035319544533903346e-01
9.839759274092478580e-02
9.322681318726351585e-02
8.808132393260181825e-02
8.302173448561642188e-02
7.810706586592416900e-02
7.339427404402064370e-02
6.893779035631003582e-02
6.478908244147113527e-02
6.099623908589756061e-02
5.760358218146562070e-02
5.465130878984715557e-02
5.217516607562917852e-02
5.020616161734295368e-02
4.877031133314993494e-02
4.788842696841562330e-02
4.757594478796436932e-02
4.784279679878820912e-02
4.869332550178227803e-02
5.012624283623487442e-02
5.213463364085367535e-02
5.470600361267845269e-02
5.782237140292839639e-02
6.146040414928928552e-02
6.559159540995343485e-02
7.018248413845558364e-02
7.519491302248088038e-02
8.058632420680454655e-02
8.631009013264627494e-02
9.231587695520984682e-02
9.855003775011494938e-02
1.049560324896857827e-01
1.114748715634785448e-01
1.180455794355144000e-01
1.246056748748703841e-01
1.310916640677796119e-01
1.374395428191175217e-01
1.435853039799684094e-01
1.494654461963536296e-01
1.550174800624795624e-01
1.601804277801973098e-01
1.648953124744990673e-01
1.691056333925575472e-01
1.727578233203851954e-01
1.758016846858264925e-01
1.781908009783478575e-01
1.798829203036106938e-01
1.808403081027779025e-01
1.810300663011926714e-01
1.804244164067827505e-01
1.790009443532423195e-01
1.767428051746831874e-01
1.736388859047736100e-01
1.696839254120572349e-01
1.648785902117265723e-01
1.592295056301146761e-01
1.527492420389628403e-01
1.454562562195688691e-01
1.373747882595302006e-01
1.285347147243984245e-01
1.189713591805389714e-01
1.087252614712822807e-01
9.784190746357612767e-02
8.637142128439956323e-02
7.436822235282455895e-02
6.189064978270801543e-02
4.900055698038387197e-02
3.576287948958910973e-02
2.224517934045375928e-02
8.517169339046330723e-03
-5.349779112541605194e-03
-1.928314094953750488e-02
-3.320975131756504634e-02
-4.705632450318483068e-02
-6.074997400074273052e-02
-7.421872978542624899e-02
-8.739204888344720423e-02
-1.002013153812422175e-01
-1.125803260959132301e-01
-1.244657582384009753e-01
-1.357976155381146188e-01
-1.465196494619561141e-01
-1.565797523506279876e-01
-1.659303195092578509e-01
-1.745285775262168659e-01
-1.823368763515964275e-01
-1.893229429432640998e-01
-1.954600945815966606e-01
-2.007274102616360967e-01
-2.051098588911954290e-01
-2.085983833529113096e-01
-2.111899398248523740e-01
-2.128874920955068084e-01
-2.136999609521701704e-01
-2.136421290642721571e-01
-2.127345021224709143e-01
-2.110031273277397368e-01
-2.084793706496712584e-01
-2.051996545873191469e-01
-2.012051584666922355e-01
-1.965414835942163596e-01
-1.912582858528895091e-01
-1.854088785754437751e-01
-1.790498087547077177e-01
-1.722404098537670680e-01
-1.650423346559818372e-01
-1.575190717459733492e-01
-1.497354493362935135e-01
1.060660171779821276e-01
1.184527913424238271e-01
1.306382655688495542e-01
1.425517624255343563e-01
1.541237942723149013e-01
1.652865684825397530e-01
1.759744808179847797e-01
1.861245932120915436e-01
1.956770923347933566e-01
2.045757254578202122e-01
2.127682103116065593e-01
2.202066158224484371e-01
2.268477108398594955e-01
2.326532782074675620e-01
2.375903917944119370e-01
2.416316543860341226e-01
2.447553946305438821e-01
2.469458215500104359e-01
2.481931354470953699e-01
2.484935943709341288e-01
2.478495356439534003e-01
2.462693522935896773e-01
2.437674245762376235e-01
2.403640071226779140e-01
2.360850725720960996e-01
2.309621128930297029e-01
2.250318999116302510e-01
2.183362068780421994e-01
2.109214931981063523e-01
2.028385547377284659e-01
1.941421423689656534e-01
1.848905516681814132e-01
1.751451868956542257e-01
1.649701025811237953e-01
1.544315262094289043e-01
1.435973656433406631e-01
1.325367050358239596e-01
1.213192930704014849e-01
1.100150274253739041e-01
9.869343938494819224e-02
8.742318251762218329e-02
7.627152930949973597e-02
6.530387957781667863e-02
5.458328439831654916e-02
4.416998915994255204e-02
3.412099921251569856e-02
2.448967139879194843e-02
1.532533456286383489e-02
6.672941903822490750e-03
-1.427242201362158291e-03
-8.939918546787883891e-03
-1.583499054243614479e-02
-2.208776097775140557e-02
-2.767908663926560431e-02
-3.259548964111110003e-02
-3.682922465949432789e-02
-4.037830160058390738e-02
-4.324646357318030765e-02
-4.544312038039256818e-02
-4.698323808569603716e-02
-4.788718554559825979e-02
-4.818053913110003500e-02
-4.789384718068894625e-02
-4.706235603628877717e-02
-4.572569980804246093e-02
-4.392755629178068250e-02
-4.171527172238901487e-02
-3.913945728505543314e-02
-3.625356052272093316e-02
-3.311341497032080361e-02
-2.977677151311558523e-02
-2.630281510629819616e-02
-2.275167060504944619e-02
-1.918390153744913007e-02
-1.566000570649189044e-02
-1.223991153149346992e-02
-8.982479033230197918e-03
-5.945009331257702923e-03
-3.182766456305913261e-03
-7.485151859263836083e-04
1.307921511591619845e-03
2.940081990669932144e-03
4.105259141881562046e-03
4.764864249994615886e-03
4.884758666643479463e-03
4.435550714792749205e-03
3.392855509106645906e-03
1.737515661071678541e-03
-5.442188619517590586e-04
-3.460553140950201056e-03
-7.014053065427572342e-03
-1.120159520927249686e-02
-1.601436124327519639e-02
-2.143787696318605329e-02
-2.745209566950024271e-02
-3.403152529441554053e-02
-4.114539833527094959e-02
-4.875788332477890008e-02
-5.682833624905997416e-02
-6.531159001730478531e-02
-7.415827979417843885e-02
-8.331520173010124874e-02
-9.272570236737903704e-02
-1.023300957638124398e-01
-1.120661051616694825e-01
-1.218693258404292268e-01
-1.131673705627915805e+00
1.358587960592377186e+00
-1.151016473851213862e+00
3.395809814747879907e-01
-1.695520594703825712e-01
-1.783488713316405128e-01
-1.867441241256520279e-01
-1.946743807725853648e-01
-2.020785815873670788e-01
-2.088985120238387450e-01
-2.150792500915936767e-01
-2.205695900190753900e-01
-2.253224389165287000e-01
-2.292951833972721176e-01
-2.324500233439049657e-01
-2.347542702557622041e-01
-2.361806078832497380e-01
-2.367073131415912690e-01
-2.363184355987966723e-01
-2.350039341479997768e-01
-2.327597698003180948e-01
-2.295879538685489663e-01
-2.254965511517886823e-01
-2.204996380738410422e-01
-2.146172160714573951e-01
-2.078750808693778929e-01
-2.003046486152400552e-01
-1.919427401760981922e-01
-1.828313252170475356e-01
-1.730172279888326226e-01
-1.625517970429996018e-01
-1.514905413678973023e-01
-1.398927356945213196e-01
-1.278209979559182530e-01
-1.153408420957705294e-01
-1.025202096093030951e-01
-8.942898336130679360e-02
-7.613848736066720913e-02
-6.272097627726487545e-02
-4.924911856466678006e-02
-3.579547710007174866e-02
-2.243199127114091709e-02
-9.229464427479398825e-03
3.742939427236711969e-03
1.641818589789279664e-02
2.873184371117115665e-02
4.062253790397697684e-02
5.203237926767428911e-02
6.290736681090999816e-02
7.319776021065818594e-02
8.285841945111979689e-02
9.184910910146358576e-02
1.001347649542209811e-01
1.076857210343158122e-01
1.144778952920684212e-01
1.204929326097077119e-01
1.257183040775505245e-01
1.301473618305543645e-01
1.337793490758653614e-01
1.366193652846683926e-01
1.386782868644662881e-01
1.399726439682608403e-01
1.405244544323685230e-01
1.403610161622121100e-01
1.395146596028832287e-01
1.380224622361398978e-01
1.359259273354530562e-01
1.332706294835298289e-01
1.301058296103368705e-01
1.264840625420725895e-01
1.224607002610289402e-01
1.180934942612295036e-01
1.134421005437208502e-01
1.085675909272114242e-01
1.035319544533903346e-01
9.839759274092478580e-02
9.322681318726351585e-02
8.808132393260181825e-02
8.302173448561642188e-02
7.810706586592416900e-02
7.339427404402064370e-02
6.893779035631003582e-02
6.478908244147113527e-02
6.099623908589756061e-02
5.760358218146562070e-02
5.465130878984715557e-02
5.217516607562917852e-02
5.020616161734295368e-02
4.877031133314993494e-02
4.788842696841562330e-02
4.757594478796436932e-02
4.784279679878820912e-02
4.869332550178227803e-02
5.012624283623487442e-02
5.213463364085367535e-02
5.470600361267845269e-02
5.782237140292839639e-02
6.146040414928928552e-02
6.559159540995343485e-02
7.018248413845558364e-02
7.519491302248088038e-02
8.058632420680454655e-02
8.631009013264627494e-02
9.231587695520984682e-02
9.855003775011494938e-02
1.049560324896857827e-01
1.114748715634785448e-01
1.180455794355144000e-01
1.246056748748703841e-01
1.310916640677796119e-01
1.374395428191175217e-01
1.435853039799684094e-01
1.494654461963536296e-01
1.550174800624795624e-01
1.601804277801973098e-01
1.648953124744990673e-01
1.691056333925575472e-01
1.727578233203851954e-01
1.758016846858264925e-01
1.781908009783478575e-01
1.798829203036106938e-01
1.808403081027779025e-01
1.810300663011926714e-01
1.804244164067827505e-01
1.790009443532423195e-01
1.767428051746831874e-01
1.736388859047736100e-01
1.696839254120572349e-01
1.648785902117265723e-01
1.592295056301146761e-01
1.527492420389628403e-01
1.454562562195688691e-01
1.373747882595302006e-01
1.285347147243984245e-01
1.189713591805389714e-01
1.087252614712822807e-01
9.784190746357612767e-02
8.637142128439956323e-02
7.436822235282455895e-02
6.189064978270801543e-02
4.900055698038387197e-02
3.576287948958910973e-02
2.224517934045375928e-02
8.517169339046330723e-03
-5.349779112541605194e-03
-1.928314094953750488e-02
-3.320975131756504634e-02
-4.705632450318483068e-02
-6.074997400074273052e-02
-7.421872978542624899e-02
-8.739204888344720423e-02
-1.002013153812422175e-01
-1.125803260959132301e-01
-1.244657582384009753e-01
-1.357976155381146188e-01
-1.465196494619561141e-01
-1.565797523506279876e-01
-1.659303195092578509e-01
-1.745285775262168659e-01
-1.823368763515964275e-01
-1.893229429432640998e-01
-1.954600945815966606e-01
-2.007274102616360967e-01
-2.051098588911954290e-01
-2.085983833529113096e-01
-2.111899398248523740e-01
-2.128874920955068084e-01
-2.136999609521701704e-01
-2.136421290642721571e-01
-2.127345021224709143e-01
-2.110031273277397368e-01
-2.084793706496712584e-01
-2.051996545873191469e-01
-2.012051584666922355e-01
-1.965414835942163596e-01
-1.912582858528895091e-01
-1.854088785754437751e-01
-1.790498087547077177e-01
-1.722404098537670680e-01
-1.650423346559818372e-01
-1.575190717459733492e-01
-1.497354493362935135e-01
1.060660171779821276e-01
1.184527913424238271e-01
1.306382655688495542e-01
1.425517624255343563e-01
1.541237942723149013e-01
1.652865684825397530e-01
1.759744808179847797e-01
1.861245932120915436e-01
1.956770923347933566e-01
2.045757254578202122e-01
2.127682103116065593e-01
2.202066158224484371e-01
2.268477108398594955e-01
2.326532782074675620e-01
2.375903917944119370e-01
2.416316543860341226e-01
2.447553946305438821e-01
2.469458215500104359e-01
2.481931354470953699e-01
2.484935943709341288e-01
2.478495356439534003e-01
2.462693522935896773e-01
2.437674245762376235e-01
2.403640071226779140e-01
2.360850725720960996e-01
2.309621128930297029e-01
2.250318999116302510e-01
2.183362068780421994e-01
2.109214931981063523e-01
2.028385547377284659e-01
1.941421423689656534e-01
1.848905516681814132e-01
1.751451868956542257e-01
1.649701025811237953e-01
1.544315262094289043e-01
1.435973656433406631e-01
1.325367050358239596e-01
1.213192930704014849e-01
1.100150274253739041e-01
9.869343938494819224e-02
8.742318251762218329e-02
7.627152930949973597e-02
6.530387957781667863e-02
5.458328439831654916e-02
4.416998915994255204e-02
3.412099921251569856e-02
2.448967139879194843e-02
1.532533456286383489e-02
6.672941903822490750e-03
-1.427242201362158291e-03
-8.939918546787883891e-03
-1.583499054243614479e-02
-2.208776097775140557e-02
-2.767908663926560431e-02
-3.259548964111110003e-02
-3.682922465949432789e-02
-4.037830160058390738e-02
-4.324646357318030765e-02
-4.544312038039256818e-02
-4.698323808569603716e-02
-4.788718554559825979e-02
-4.818053913110003500e-02
-4.789384718068894625e-02
-4.706235603628877717e-02
-4.572569980804246093e-02
-4.392755629178068250e-02
-4.171527172238901487e-02
-3.913945728505543314e-02
-3.625356052272093316e-02
-3.311341497032080361e-02
-2.977677151311558523e-02
-2.630281510629819616e-02
-2.275167060504944619e-02
-1.918390153744913007e-02
-1.566000570649189044e-02
-1.223991153149346992e-02
-8.982479033230197918e-03
-5.945009331257702923e-03
-3.182766456305913261e-03
-7.485151859263836083e-04
1.307921511591619845e-03
2.940081990669932144e-03
4.105259141881562046e-03
4.764864249994615886e-03
4.884758666643479463e-03
4.435550714792749205e-03
3.392855509106645906e-03
1.737515661071678541e-03
-5.442188619517590586e-04
-3.460553140950201056e-03
-7.014053065427572342e-03
-1.120159520927249686e-02
-1.601436124327519639e-02
-2.143787696318605329e-02
-2.745209566950024271e-02
-3.403152529441554053e-02
-4.114539833527094959e-02
-4.875788332477890008e-02
-5.682833624905997416e-02
-6.531159001730478531e-02
-7.415827979417843885e-02
-8.331520173010124874e-02
-9.272570236737903704e-02
-1.023300957638124398e-01
-1.120661051616694825e-01
-1.218693258404292268e-01
-1.131673705627915805e+00
1.358587960592377186e+00
-1.151016473851213862e+00
3.395809814747879907e-01
-1.695520594703825712e-01
-1.783488713316405128e-01
-1.867441241256520279e-01
-1.946743807725853648e-01
-2.020785815873670788e-01
-2.088985120238387450e-01
-2.150792500915936767e-01
-2.205695900190753900e-01
-2.253224389165287000e-01
-2.292951833972721176e-01
-2.324500233439049657e-01
-2.347542702557622041e-01
-2.361806078832497380e-01
-2.367073131415912690e-01
-2.363184355987966723e-01
-2.350039341479997768e-01
-2.327597698003180948e-01
-2.295879538685489663e-01
-2.254965511517886823e-01
-2.204996380738410422e-01
-2.146172160714573951e-01
-2.078750808693778929e-01
-2.003046486152400552e-01
-1.919427401760981922e-01
-1.828313252170475356e-01
-1.730172279888326226e-01
-1.625517970429996018e-01
-1.514905413678973023e-01
-1.398927356945213196e-01
-1.278209979559182530e-01
-1.153408420957705294e-01
-1.025202096093030951e-01
-8.942898336130679360e-02
-7.613848736066720913e-02
-6.272097627726487545e-02
-4.924911856466678006e-02
-3.579547710007174866e-02
-2.243199127114091709e-02
-9.229464427479398825e-03
3.742939427236711969e-03
1.641818589789279664e-02
2.873184371117115665e-02
4.062253790397697684e-02
5.203237926767428911e-02
6.290736681090999816e-02
7.319776021065818594e-02
8.285841945111979689e-02
9.184910910146358576e-02
1.001347649542209811e-01
1.076857210343158122e-01
1.144778952920684212e-01
1.204929326097077119e-01
1.257183040775505245e-01
1.301473618305543645e-01
1.337793490758653614e-01
1.366193652846683926e-01
1.386782868644662881e-01
1.399726439682608403e-01
1.405244544323685230e-01
1.403610161622121100e-01
1.395146596028832287e-01
1.380224622361398978e-01
1.359259273354530562e-01
1.332706294835298289e-01
1.301058296103368705e-01
1.264840625420725895e-01
1.224607002610289402e-01
1.180934942612295036e-01
1.134421005437208502e-01
1.085675909272114242e-01
1.035319544533903346e-01
9.839759274092478580e-02
9.322681318726351585e-02
8.808132393260181825e-02
8.302173448561642188e-02
7.810706586592416900e-02
7.339427404402064370e-02
6.893779035631003582e-02
6.478908244147113527e-02
6.099623908589756061e-02
5.760358218146562070e-02
5.465130878984715557e-02
5.217516607562917852e-02
5.020616161734295368e-02
4.877031133314993494e-02
4.788842696841562330e-02
4.757594478796436932e-02
4.784279679878820912e-02
4.869332550178227803e-02
5.012624283623487442e-02
5.213463364085367535e-02
5.470600361267845269e-02
5.782237140292839639e-02
6.146040414928928552e-02
6.559159540995343485e-02
7.018248413845558364e-02
7.519491302248088038e-02
8.058632420680454655e-02
8.631009013264627494e-02
9.231587695520984682e-02
9.855003775011494938e-02
1.049560324896857827e-01
1.114748715634785448e-01
1.180455794355144000e-01
1.246056748748703841e-01
1.310916640677796119e-01
1.374395428191175217e-01
1.435853039799684094e-01
1.494654461963536296e-01
1.550174800624795624e-01
1.601804277801973098e-01
1.648953124744990673e-01
1.691056333925575472e-01
1.727578233203851954e-01
1.758016846858264925e-01
1.781908009783478575e-01
1.798829203036106938e-01
1.808403081027779025e-01
1.810300663011926714e-01
1.804244164067827505e-01
1.790009443532423195e-01
1.767428051746831874e-01
1.736388859047736100e-01
1.696839254120572349e-01
1.648785902117265723e-01
1.592295056301146761e-01
1.527492420389628403e-01
1.454562562195688691e-01
1.373747882595302006e-01
1.285347147243984245e-01
1.189713591805389714e-01
1.087252614712822807e-01
9.784190746357612767e-02
8.637142128439956323e-02
7.436822235282455895e-02
6.189064978270801543e-02
4.900055698038387197e-02
3.576287948958910973e-02
2.224517934045375928e-02
8.517169339046330723e-03
-5.349779112541605194e-03
-1.928314094953750488e-02
-3.320975131756504634e-02
-4.705632450318483068e-02
-6.074997400074273052e-02
-7.421872978542624899e-02
-8.739204888344720423e-02
-1.002013153812422175e-01
-1.125803260959132301e-01
-1.244657582384009753e-01
-1.357976155381146188e-01
-1.465196494619561141e-01
-1.565797523506279876e-01
-1.659303195092578509e-01
-1.745285775262168659e-01
-1.823368763515964275e-01
-1.893229429432640998e-01
-1.954600945815966606e-01
-2.007274102616360967e-01
-2.051098588911954290e-01
-2.085983833529113096e-01
-2.111899398248523740e-01
-2.128874920955068084e-01
-2.136999609521701704e-01
-2.136421290642721571e-01
-2.127345021224709143e-01
-2.110031273277397368e-01
-2.084793706496712584e-01
-2.051996545873191469e-01
-2.012051584666922355e-01
-1.965414835942163596e-01
-1.912582858528895091e-01
-1.854088785754437751e-01
-1.790498087547077177e-01
-1.722404098537670680e-01
-1.650423346559818372e-01
-1.575190717459733492e-01
-1.497354493362935135e-01
1.060660171779821276e-01
1.184527913424238271e-01
1.306382655688495542e-01
1.425517624255343563e-01
1.541237942723149013e-01
1.652865684825397530e-01
1.759744808179847797e-01
1.861245932120915436e-01
1.956770923347933566e-01
2.045757254578202122e-01
2.127682103116065593e-01
2.202066158224484371e-01
2.268477108398594955e-01
2.326532782074675620e-01
2.375903917944119370e-01
2.416316543860341226e-01
2.447553946305438821e-01
2.469458215500104359e-01
2.481931354470953699e-01
2.484935943709341288e-01
2.478495356439534003e-01
2.462693522935896773e-01
2.437674245762376235e-01
2.403640071226779140e-01
2.360850725720960996e-01
2.309621128930297029e-01
2.250318999116302510e-01
2.183362068780421994e-01
2.109214931981063523e-01
2.028385547377284659e-01
1.941421423689656534e-01
1.848905516681814132e-01
1.751451868956542257e-01
1.649701025811237953e-01
1.544315262094289043e-01
1.435973656433406631e-01
1.325367050358239596e-01
1.213192930704014849e-01
1.100150274253739041e-01
9.869343938494819224e-02
8.742318251762218329e-02
7.627152930949973597e-02
6.530387957781667863e-02
5.458328439831654916e-02
4.416998915994255204e-02
3.412099921251569856e-02
2.448967139879194843e-02
1.532533456286383489e-02
6.672941903822490750e-03
-1.427242201362158291e-03
-8.939918546787883891e-03
-1.583499054243614479e-02
-2.208776097775140557e-02
-2.767908663926560431e-02
-3.259548964111110003e-02
-3.682922465949432789e-02
-4.037830160058390738e-02
-4.324646357318030765e-02
-4.544312038039256818e-02
-4.698323808569603716e-02
-4.788718554559825979e-02
-4.818053913110003500e-02
-4.789384718068894625e-02
-4.706235603628877717e-02
-4.572569980804246093e-02
-4.392755629178068250e-02
-4.171527172238901487e-02
-3.913945728505543314e-02
-3.625356052272093316e-02
-3.311341497032080361e-02
-2.977677151311558523e-02
-2.630281510629819616e-02
-2.275167060504944619e-02
-1.918390153744913007e-02
-1.566000570649189044e-02
-1.223991153149346992e-02
-8.982479033230197918e-03
-5.945009331257702923e-03
-3.182766456305913261e-03
-7.485151859263836083e-04
1.307921511591619845e-03
2.940081990669932144e-03
4.105259141881562046e-03
4.764864249994615886e-03
4.884758666643479463e-03
4.435550714792749205e-03
3.392855509106645906e-03
1.737515661071678541e-03
-5.442188619517590586e-04
-3.460553140950201056e-03
-7.014053065427572342e-03
-1.120159520927249686e-02
-1.601436124327519639e-02
-2.143787696318605329e-02
-2.745209566950024271e-02
-3.403152529441554053e-02
-4.114539833527094959e-02
-4.875788332477890008e-02
-5.682833624905997416e-02
-6.531159001730478531e-02
-7.415827979417843885e-02
-8.331520173010124874e-02
-9.272570236737903704e-02
-1.023300957638124398e-01
-1.120661051616694825e-01
-1.218693258404292268e-01
-1.131673705627915805e+00
1.358587960592377186e+00
-1.151016473851213862e+00
3.395809814747879907e-01
-1.695520594703825712e-01
-1.783488713316405128e-01
-1.867441241256520279e-01
-1.946743807725853648e-01
-2.020785815873670788e-01
-2.088985120238387450e-01
-2.150792500915936767e-01
-2.205695900190753900e-01
-2.253224389165287000e-01
-2.292951833972721176e-01
-2.324500233439049657e-01
-2.347542702557622041e-01
-2.361806078832497380e-01
-2.367073131415912690e-01
-2.363184355987966723e-01
-2.350039341479997768e-01
-2.327597698003180948e-01
-2.295879538685489663e-01
-2.254965511517886823e-01
-2.204996380738410422e-01
-2.146172160714573951e-01
-2.078750808693778929e-01
-2.003046486152400552e-01
-1.919427401760981922e-01
-1.828313252170475356e-01
-1.730172279888326226e-01
-1.625517970429996018e-01
-1.514905413678973023e-01
-1.398927356945213196e-01
-1.278209979559182530e-01
-1.153408420957705294e-01
-1.025202096093030951e-01
-8.942898336130679360e-02
-7.613848736066720913e-02
-6.272097627726487545e-02
-4.924911856466678006e-02
-3.579547710007174866e-02
-2.243199127114091709e-02
-9.229464427479398825e-03
3.742939427236711969e-03
1.641818589789279664e-02
2.873184371117115665e-02
4.062253790397697684e-02
5.203237926767428911e-02
6.290736681090999816e-02
7.319776021065818594e-02
8.285841945111979689e-02
9.184910910146358576e-02
1.001347649542209811e-01
1.076857210343158122e-01
1.144778952920684212e-01
1.204929326097077119e-01
1.257183040775505245e-01
1.301473618305543645e-01
1.337793490758653614e-01
1.366193652846683926e-01
1.386782868644662881e-01
1.399726439682608403e-01
1.405244544323685230e-01
1.403610161622121100e-01
1.395146596028832287e-01
1.380224622361398978e-01
1.359259273354530562e-01
1.332706294835298289e-01
1.301058296103368705e-01
1.264840625420725895e-01
1.224607002610289402e-01
1.180934942612295036e-01
1.134421005437208502e-01
1.085675909272114242e-01
1.035319544533903346e-01
9.839759274092478580e-02
9.322681318726351585e-02
8.808132393260181825e-02
8.302173448561642188e-02
7.810706586592416900e-02
7.339427404402064370e-02
6.893779035631003582e-02
6.478908244147113527e-02
6.099623908589756061e-02
5.760358218146562070e-02
5.465130878984715557e-02
5.217516607562917852e-02
5.020616161734295368e-02
4.877031133314993494e-02
4.788842696841562330e-02
4.757594478796436932e-02
4.784279679878820912e-02
4.869332550178227803e-02
5.012624283623487442e-02
5.213463364085367535e-02
5.470600361267845269e-02
5.782237140292839639e-02
6.146040414928928552e-02
6.559159540995343485e-02
7.018248413845558364e-02
7.519491302248088038e-02
8.058632420680454655e-02
8.631009013264627494e-02
9.231587695520984682e-02
9.855003775011494938e-02
1.049560324896857827e-01
1.114748715634785448e-01
1.180455794355144000e-01
1.246056748748703841e-01
1.310916640677796119e-01
1.374395428191175217e-01
1.435853039799684094e-01
1.494654461963536296e-01
1.550174800624795624e-01
1.601804277801973098e-01
1.648953124744990673e-01
1.691056333925575472e-01
1.727578233203851954e-01
1.758016846858264925e-01
1.781908009783478575e-01
1.798829203036106938e-01
1.808403081027779025e-01
1.810300663011926714e-01
1.804244164067827505e-01
1.790009443532423195e-01
1.767428051746831874e-01
1.736388859047736100e-01
1.696839254120572349e-01
1.648785902117265723e-01
1.592295056301146761e-01
1.527492420389628403e-01
1.454562562195688691e-01
1.373747882595302006e-01
1.285347147243984245e-01
1.189713591805389714e-01
1.087252614712822807e-01
9.784190746357612767e-02
8.637142128439956323e-02
7.436822235282455895e-02
6.189064978270801543e-02
4.900055698038387197e-02
3.576287948958910973e-02
2.224517934045375928e-02
8.517169339046330723e-03
-5.349779112541605194e-03
-1.928314094953750488e-02
-3.320975131756504634e-02
-4.705632450318483068e-02
-6.074997400074273052e-02
-7.421872978542624899e-02
-8.739204888344720423e-02
-1.002013153812422175e-01
-1.125803260959132301e-01
-1.244657582384009753e-01
-1.357976155381146188e-01
-1.465196494619561141e-01
-1.565797523506279876e-01
-1.659303195092578509e-01
-1.745285775262168659e-01
-1.823368763515964275e-01
-1.893229429432640998e-01
-1.954600945815966606e-01
-2.007274102616360967e-01
-2.051098588911954290e-01
-2.085983833529113096e-01
-2.111899398248523740e-01
-2.128874920955068084e-01
-2.136999609521701704e-01
-2.136421290642721571e-01
-2.127345021224709143e-01
-2.110031273277397368e-01
-2.084793706496712584e-01
-2.051996545873191469e-01
-2.012051584666922355e-01
-1.965414835942163596e-01
-1.912582858528895091e-01
-1.854088785754437751e-01
-1.790498087547077177e-01
-1.722404098537670680e-01
-1.650423346559818372e-01
-1.575190717459733492e-01
-1.497354493362935135e-01
1.060660171779821276e-01
1.184527913424238271e-01
1.306382655688495542e-01
1.425517624255343563e-01
1.541237942723149013e-01
1.652865684825397530e-01
1.759744808179847797e-01
1.861245932120915436e-01
1.956770923347933566e-01
2.045757254578202122e-01
2.127682103116065593e-01
2.202066158224484371e-01
2.268477108398594955e-01
2.326532782074675620e-01
2.375903917944119370e-01
2.416316543860341226e-01
2.447553946305438821e-01
2.469458215500104359e-01
2.481931354470953699e-01
2.484935943709341288e-01
2.478495356439534003e-01
2.462693522935896773e-01
2.437674245762376235e-01
2.403640071226779140e-01
2.360850725720960996e-01
2.309621128930297029e-01
2.250318999116302510e-01
2.183362068780421994e-01
2.109214931981063523e-01
2.028385547377284659e-01
1.941421423689656534e-01
1.848905516681814132e-01
1.751451868956542257e-01
1.649701025811237953e-01
1.544315262094289043e-01
1.435973656433406631e-01
1.325367050358239596e-01
1.213192930704014849e-01
1.100150274253739041e-01
9.869343938494819224e-02
8.742318251762218329e-02
7.627152930949973597e-02
6.530387957781667863e-02
5.458328439831654916e-02
4.416998915994255204e-02
3.412099921251569856e-02
2.448967139879194843e-02
1.532533456286383489e-02
6.672941903822490750e-03
-1.427242201362158291e-03
-8.939918546787883891e-03
-1.583499054243614479e-02
-2.208776097775140557e-02
-2.767908663926560431e-02
-3.259548964111110003e-02
-3.682922465949432789e-02
-4.037830160058390738e-02
-4.324646357318030765e-02
-4.544312038039256818e-02
-4.698323808569603716e-02
-4.788718554559825979e-02
-4.818053913110003500e-02
-4.789384718068894625e-02
-4.706235603628877717e-02
-4.572569980804246093e-02
-4.392755629178068250e-02
-4.171527172238901487e-02
-3.913945728505543314e-02
-3.625356052272093316e-02
-3.311341497032080361e-02
-2.977677151311558523e-02
-2.630281510629819616e-02
-2.275167060504944619e-02
-1.918390153744913007e-02
-1.566000570649189044e-02
-1.223991153149346992e-02
-8.982479033230197918e-03
-5.945009331257702923e-03
-3.182766456305913261e-03
-7.485151859263836083e-04
1.307921511591619845e-03
2.940081990669932144e-03
4.105259141881562046e-03
4.764864249994615886e-03
4.884758666643479463e-03
4.435550714792749205e-03
3.392855509106645906e-03
1.737515661071678541e-03
-5.442188619517590586e-04
-3.460553140950201056e-03
-7.014053065427572342e-03
-1.120159520927249686e-02
-1.601436124327519639e-02
-2.143787696318605329e-02
-2.745209566950024271e-02
-3.403152529441554053e-02
-4.114539833527094959e-02
-4.875788332477890008e-02
-5.682833624905997416e-02
-6.531159001730478531e-02
-7.415827979417843885e-02
-8.331520173010124874e-02
-9.272570236737903704e-02
-1.023300957638124398e-01
-1.120661051616694825e-01
-1.218693258404292268e-01
-1.131673705627915805e+00
1.358587960592377186e+00
-1.151016473851213862e+00
3.395809814747879907e-01
-1.695520594703825712e-01
-1.783488713316405128e-01
-1.867441241256520279e-01
-1.946743807725853648e-01
-2.020785815873670788e-01
-2.088985120238387450e-01
-2.150792500915936767e-01
-2.205695900190753900e-01
-2.253224389165287000e-01
-2.292951833972721176e-01
-2.324500233439049657e-01
-2.347542702557622041e-01
-2.361806078832497380e-01
-2.367073131415912690e-01
-2.363184355987966723e-01
-2.350039341479997768e-01
-2.327597698003180948e-01
-2.295879538685489663e-01
-2.254965511517886823e-01
-2.204996380738410422e-01
-2.146172160714573951e-01
-2.078750808693778929e-01
-2.003046486152400552e-01
-1.919427401760981922e-01
-1.828313252170475356e-01
-1.730172279888326226e-01
-1.625517970429996018e-01
-1.514905413678973023e-01
-1.398927356945213196e-01
-1.278209979559182530e-01
-1.153408420957705294e-01
-1.025202096093030951e-01
-8.942898336130679360e-02
-7.613848736066720913e-02
-6.272097627726487545e-02
-4.924911856466678006e-02
-3.579547710007174866e-02
-2.243199127114091709e-02
-9.229464427479398825e-03
3.742939427236711969e-03
1.641818589789279664e-02
2.873184371117115665e-02
4.062253790397697684e-02
5.203237926767428911e-02
6.290736681090999816e-02
7.319776021065818594e-02
8.285841945111979689e-02
9.184910910146358576e-02
1.001347649542209811e-01
1.076857210343158122e-01
1.144778952920684212e-01
1.204929326097077119e-01
1.257183040775505245e-01
1.301473618305543645e-01
1.337793490758653614e-01
1.366193652846683926e-01
1.386782868644662881e-01
1.399726439682608403e-01
1.405244544323685230e-01
1.403610161622121100e-01
1.395146596028832287e-01
1.380224622361398978e-01
1.359259273354530562e-01
1.332706294835298289e-01
1.301058296103368705e-01
1.264840625420725895e-01
1.224607002610289402e-01
1.180934942612295036e-01
1.134421005437208502e-01
1.085675909272114242e-01
1.035319544533903346e-01
9.839759274092478580e-02
9.322681318726351585e-02
8.808132393260181825e-02
8.302173448561642188e-02
7.810706586592416900e-02
7.339427404402064370e-02
6.893779035631003582e-02
6.478908244147113527e-02
6.099623908589756061e-02
5.760358218146562070e-02
5.465130878984715557e-02
5.217516607562917852e-02
5.020616161734295368e-02
4.877031133314993494e-02
4.788842696841562330e-02
4.757594478796436932e-02
4.784279679878820912e-02
4.869332550178227803e-02
5.012624283623487442e-02
5.213463364085367535e-02
5.470600361267845269e-02
5.782237140292839639e-02
6.146040414928928552e-02
6.559159540995343485e-02
7.018248413845558364e-02
7.519491302248088038e-02
8.058632420680454655e-02
8.631009013264627494e-02
9.231587695520984682e-02
9.855003775011494938e-02
1.049560324896857827e-01
1.114748715634785448e-01
1.180455794355144000e-01
1.246056748748703841e-01
1.310916640677796119e-01
1.374395428191175217e-01
1.435853039799684094e-01
1.494654461963536296e-01
1.550174800624795624e-01
1.601804277801973098e-01
1.648953124744990673e-01
1.691056333925575472e-01
1.727578233203851954e-01
1.758016846858264925e-01
1.781908009783478575e-01
1.798829203036106938e-01
1.808403081027779025e-01
1.810300663011926714e-01
1.804244164067827505e-01
1.790009443532423195e-01
1.767428051746831874e-01
1.736388859047736100e-01
1.696839254120572349e-01
1.648785902117265723e-01
1.592295056301146761e-01
1.527492420389628403e-01
1.454562562195688691e-01
1.373747882595302006e-01
1.285347147243984245e-01
1.189713591805389714e-01
1.087252614712822807e-01
9.784190746357612767e-02
8.637142128439956323e-02
7.436822235282455895e-02
6.189064978270801543e-02
4.900055698038387197e-02
3.576287948958910973e-02
2.224517934045375928e-02
8.517169339046330723e-03
-5.349779112541605194e-03
-1.928314094953750488e-02
-3.320975131756504634e-02
-4.705632450318483068e-02
-6.074997400074273052e-02
-7.421872978542624899e-02
-8.739204888344720423e-02
-1.002013153812422175e-01
-1.125803260959132301e-01
-1.244657582384009753e-01
-1.357976155381146188e-01
-1.465196494619561141e-01
-1.565797523506279876e-01
-1.659303195092578509e-01
-1.745285775262168659e-01
-1.823368763515964275e-01
-1.893229429432640998e-01
-1.954600945815966606e-01
-2.007274102616360967e-01
-2.051098588911954290e-01
-2.085983833529113096e-01
-2.111899398248523740e-01
-2.128874920955068084e-01
-2.136999609521701704e-01
-2.136421290642721571e-01
-2.127345021224709143e-01
-2.110031273277397368e-01
-2.084793706496712584e-01
-2.051996545873191469e-01
-2.012051584666922355e-01
-1.965414835942163596e-01
-1.912582858528895091e-01
-1.854088785754437751e-01
-1.790498087547077177e-01
-1.722404098537670680e-01
-1.650423346559818372e-01
-1.575190717459733492e-01
-1.497354493362935135e-01
1.060660171779821276e-01
1.184527913424238271e-01
1.306382655688495542e-01
1.425517624255343563e-01
1.541237942723149013e-01
1.652865684825397530e-01
1.759744808179847797e-01
1.861245932120915436e-01
1.956770923347933566e-01
2.045757254578202122e-01
2.127682103116065593e-01
2.202066158224484371e-01
2.268477108398594955e-01
2.326532782074675620e-01
2.375903917944119370e-01
2.416316543860341226e-01
2.447553946305438821e-01
2.469458215500104359e-01
2.481931354470953699e-01
2.484935943709341288e-01
2.478495356439534003e-01
2.462693522935896773e-01
2.437674245762376235e-01
2.403640071226779140e-01
2.360850725720960996e-01
2.309621128930297029e-01
2.250318999116302510e-01
2.183362068780421994e-01
2.109214931981063523e-01
2.028385547377284659e-01
1.941421423689656534e-01
1.848905516681814132e-01
1.751451868956542257e-01
1.649701025811237953e-01
1.544315262094289043e-01
1.435973656433406631e-01
1.325367050358239596e-01
1.213192930704014849e-01
1.100150274253739041e-01
9.869343938494819224e-02
8.742318251762218329e-02
7.627152930949973597e-02
6.530387957781667863e-02
5.458328439831654916e-02
4.416998915994255204e-02
3.412099921251569856e-02
2.448967139879194843e-02
1.532533456286383489e-02
6.672941903822490750e-03
-1.427242201362158291e-03
-8.939918546787883891e-03
-1.583499054243614479e-02
-2.208776097775140557e-02
-2.767908663926560431e-02
-3.259548964111110003e-02
-3.682922465949432789e-02
-4.037830160058390738e-02
-4.324646357318030765e-02
-4.544312038039256818e-02
-4.698323808569603716e-02
-4.788718554559825979e-02
-4.818053913110003500e-02
-4.789384718068894625e-02
-4.706235603628877717e-02
-4.572569980804246093e-02
-4.392755629178068250e-02
-4.171527172238901487e-02
-3.913945728505543314e-02
-3.625356052272093316e-02
-3.311341497032080361e-02
-2.977677151311558523e-02
-2.630281510629819616e-02
-2.275167060504944619e-02
-1.918390153744913007e-02
-1.566000570649189044e-02
-1.223991153149346992e-02
-8.982479033230197918e-03
-5.945009331257702923e-03
-3.182766456305913261e-03
-7.485151859263836083e-04
1.307921511591619845e-03
2.940081990669932144e-03
4.105259141881562046e-03
4.764864249994615886e-03
4.884758666643479463e-03
4.435550714792749205e-03
3.392855509106645906e-03
1.737515661071678541e-03
-5.442188619517590586e-04
-3.460553140950201056e-03
-7.014053065427572342e-03
-1.120159520927249686e-02
-1.601436124327519639e-02
-2.143787696318605329e-02
-2.745209566950024271e-02
-3.403152529441554053e-02
-4.114539833527094959e-02
-4.875788332477890008e-02
-5.682833624905997416e-02
-6.531159001730478531e-02
-7.415827979417843885e-02
-8.331520173010124874e-02
-9.272570236737903704e-02
-1.023300957638124398e-01
-1.120661051616694825e-01
-1.218693258404292268e-01
-1.131673705627915805e+00
1.358587960592377186e+00
-1.151016473851213862e+00
3.395809814747879907e-01
-1.695520594703825712e-01
-1.783488713316405128e-01
-1.867441241256520279e-01
-1.946743807725853648e-01
-2.020785815873670788e-01
-2.088985120238387450e-01
-2.150792500915936767e-01
-2.205695900190753900e-01
-2.253224389165287000e-01
-2.292951833972721176e-01
-2.324500233439049657e-01
-2.347542702557622041e-01
-2.361806078832497380e-01
-2.367073131415912690e-01
-2.363184355987966723e-01
-2.350039341479997768e-01
-2.327597698003180948e-01
-2.295879538685489663e-01
-2.254965511517886823e-01
-2.204996380738410422e-01
-2.146172160714573951e-01
-2.078750808693778929e-01
-2.003046486152400552e-01
-1.919427401760981922e-01
-1.828313252170475356e-01
-1.730172279888326226e-01
-1.625517970429996018e-01
-1.514905413678973023e-01
-1.398927356945213196e-01
-1.278209979559182530e-01
-1.153408420957705294e-01
-1.025202096093030951e-01
-8.942898336130679360e-02
-7.613848736066720913e-02
-6.272097627726487545e-02
-4.924911856466678006e-02
-3.579547710007174866e-02
-2.243199127114091709e-02
-9.229464427479398825e-03
3.742939427236711969e-03
1.641818589789279664e-02
2.873184371117115665e-02
4.062253790397697684e-02
5.203237926767428911e-02
6.290736681090999816e-02
7.319776021065818594e-02
8.285841945111979689e-02
9.184910910146358576e-02
1.001347649542209811e-01
1.076857210343158122e-01
1.144778952920684212e-01
1.204929326097077119e-01
1.257183040775505245e-01
1.301473618305543645e-01
1.337793490758653614e-01
1.366193652846683926e-01
1.386782868644662881e-01
1.399726439682608403e-01
1.405244544323685230e-01
1.403610161622121100e-01
1.395146596028832287e-01
1.380224622361398978e-01
1.359259273354530562e-01
1.332706294835298289e-01
1.301058296103368705e-01
1.264840625420725895e-01
1.224607002610289402e-01
1.180934942612295036e-01
1.134421005437208502e-01
1.085675909272114242e-01
1.035319544533903346e-01
9.839759274092478580e-02
9.322681318726351585e-02
8.808132393260181825e-02
8.302173448561642188e-02
7.810706586592416900e-02
7.339427404402064370e-02
6.893779035631003582e-02
6.478908244147113527e-02
6.099623908589756061e-02
5.760358218146562070e-02
5.465130878984715557e-02
5.217516607562917852e-02
5.020616161734295368e-02
4.877031133314993494e-02
4.788842696841562330e-02
4.757594478796436932e-02
4.784279679878820912e-02
4.869332550178227803e-02
5.012624283623487442e-02
5.213463364085367535e-02
5.470600361267845269e-02
5.782237140292839639e-02
6.146040414928928552e-02
6.559159540995343485e-02
7.018248413845558364e-02
7.519491302248088038e-02
8.058632420680454655e-02
8.631009013264627494e-02
9.231587695520984682e-02
9.855003775011494938e-02
1.049560324896857827e-01
1.114748715634785448e-01
1.180455794355144000e-01
1.246056748748703841e-01
1.310916640677796119e-01
1.374395428191175217e-01
1.435853039799684094e-01
1.494654461963536296e-01
1.550174800624795624e-01
1.601804277801973098e-01
1.648953124744990673e-01
1.691056333925575472e-01
1.727578233203851954e-01
1.758016846858264925e-01
1.781908009783478575e-01
1.798829203036106938e-01
1.808403081027779025e-01
1.810300663011926714e-01
1.804244164067827505e-01
1.790009443532423195e-01
1.767428051746831874e-01
1.736388859047736100e-01
1.696839254120572349e-01
1.648785902117265723e-01
1.592295056301146761e-01
1.527492420389628403e-01
1.454562562195688691e-01
1.373747882595302006e-01
1.285347147243984245e-01
1.189713591805389714e-01
1.087252614712822807e-01
9.784190746357612767e-02
8.637142128439956323e-02
7.436822235282455895e-02
6.189064978270801543e-02
4.900055698038387197e-02
3.576287948958910973e-02
2.224517934045375928e-02
8.517169339046330723e-03
-5.349779112541605194e-03
-1.928314094953750488e-02
-3.320975131756504634e-02
-4.705632450318483068e-02
-6.074997400074273052e-02
-7.421872978542624899e-02
-8.739204888344720423e-02
-1.002013153812422175e-01
-1.125803260959132301e-01
-1.244657582384009753e-01
-1.357976155381146188e-01
-1.465196494619561141e-01
-1.565797523506279876e-01
-1.659303195092578509e-01
-1.745285775262168659e-01
-1.823368763515964275e-01
-1.893229429432640998e-01
-1.954600945815966606e-01
-2.007274102616360967e-01
-2.051098588911954290e-01
-2.085983833529113096e-01
-2.111899398248523740e-01
-2.128874920955068084e-01
-2.136999609521701704e-01
-2.136421290642721571e-01
-2.127345021224709143e-01
-2.110031273277397368e-01
-2.084793706496712584e-01
-2.051996545873191469e-01
-2.012051584666922355e-01
-1.965414835942163596e-01
-1.912582858528895091e-01
-1.854088785754437751e-01
-1.790498087547077177e-01
-1.722404098537670680e-01
-1.650423346559818372e-01
-1.575190717459733492e-01
-1.497354493362935135e-01
1.060660171779821276e-01
1.184527913424238271e-01
1.306382655688495542e-01
1.425517624255343563e-01
1.541237942723149013e-01
1.652865684825397530e-01
1.759744808179847797e-01
1.861245932120915436e-01
1.956770923347933566e-01
2.045757254578202122e-01
2.127682103116065593e-01
2.202066158224484371e-01
2.268477108398594955e-01
2.326532782074675620e-01
2.375903917944119370e-01
2.416316543860341226e-01
2.447553946305438821e-01
2.469458215500104359e-01
2.481931354470953699e-01
2.484935943709341288e-01
2.478495356439534003e-01
2.462693522935896773e-01
2.437674245762376235e-01
2.403640071226779140e-01
2.360850725720960996e-01
2.309621128930297029e-01
2.250318999116302510e-01
2.183362068780421994e-01
2.109214931981063523e-01
2.028385547377284659e-01
1.941421423689656534e-01
1.848905516681814132e-01
1.751451868956542257e-01
1.649701025811237953e-01
1.544315262094289043e-01
1.435973656433406631e-01
1.325367050358239596e-01
1.213192930704014849e-01
1.100150274253739041e-01
9.869343938494819224e-02
8.742318251762218329e-02
7.627152930949973597e-02
6.530387957781667863e-02
5.458328439831654916e-02
4.416998915994255204e-02
3.412099921251569856e-02
2.448967139879194843e-02
1.532533456286383489e-02
6.672941903822490750e-03
-1.427242201362158291e-03
-8.939918546787883891e-03
-1.583499054243614479e-02
-2.208776097775140557e-02
-2.767908663926560431e-02
-3.259548964111110003e-02
-3.682922465949432789e-02
-4.037830160058390738e-02
-4.324646357318030765e-02
-4.544312038039256818e-02
-4.698323808569603716e-02
-4.788718554559825979e-02
-4.818053913110003500e-02
-4.789384718068894625e-02
-4.706235603628877717e-02
-4.572569980804246093e-02
-4.392755629178068250e-02
-4.171527172238901487e-02
-3.913945728505543314e-02
-3.625356052272093316e-02
-3.311341497032080361e-02
-2.977677151311558523e-02
-2.630281510629819616e-02
-2.275167060504944619e-02
-1.918390153744913007e-02
-1.566000570649189044e-02
-1.223991153149346992e-02
-8.982479033230197918e-03
-5.945009331257702923e-03
-3.182766456305913261e-03
-7.485151859263836083e-04
1.307921511591619845e-03
2.940081990669932144e-03
4.105259141881562046e-03
4.764864249994615886e-03
4.884758666643479463e-03
4.435550714792749205e-03
3.392855509106645906e-03
1.737515661071678541e-03
-5.442188619517590586e-04
-3.460553140950201056e-03
-7.014053065427572342e-03
-1.120159520927249686e-02
-1.601436124327519639e-02
-2.143787696318605329e-02
-2.745209566950024271e-02
-3.403152529441554053e-02
-4.114539833527094959e-02
-4.875788332477890008e-02
-5.682833624905997416e-02
-6.531159001730478531e-02
-7.415827979417843885e-02
-8.331520173010124874e-02
-9.272570236737903704e-02
-1.023300957638124398e-01
-1.120661051616694825e-01
-1.218693258404292268e-01
-1.131673705627915805e+00
1.358587960592377186e+00
-1.151016473851213862e+00
3.395809814747879907e-01
-1.695520594703825712e-01
-1.783488713316405128e-01
-1.867441241256520279e-01
-1.946743807725853648e-01
-2.020785815873670788e-01
-2.088985120238387450e-01
-2.150792500915936767e-01
-2.205695900190753900e-01
-2.253224389165287000e-01
-2.292951833972721176e-01
-2.324500233439049657e-01
-2.347542702557622041e-01
-2.361806078832497380e-01
-2.367073131415912690e-01
-2.363184355987966723e-01
-2.350039341479997768e-01
-2.327597698003180948e-01
-2.295879538685489663e-01
-2.254965511517886823e-01
-2.204996380738410422e-01
-2.146172160714573951e-01
-2.078750808693778929e-01
-2.003046486152400552e-01
-1.919427401760981922e-01
-1.828313252170475356e-01
-1.730172279888326226e-01
-1.625517970429996018e-01
-1.514905413678973023e-01
-1.398927356945213196e-01
-1.278209979559182530e-01
-1.153408420957705294e-01
-1.025202096093030951e-01
-8.942898336130679360e-02
-7.613848736066720913e-02
-6.272097627726487545e-02
-4.924911856466678006e-02
-3.579547710007174866e-02
-2.243199127114091709e-02
-9.229464427479398825e-03
3.742939427236711969e-03
1.641818589789279664e-02
2.873184371117115665e-02
4.062253790397697684e-02
5.203237926767428911e-02
6.290736681090999816e-02
7.319776021065818594e-02
8.285841945111979689e-02
9.184910910146358576e-02
1.001347649542209811e-01
1.076857210343158122e-01
1.144778952920684212e-01
1.204929326097077119e-01
1.257183040775505245e-01
1.301473618305543645e-01
1.337793490758653614e-01
1.366193652846683926e-01
1.386782868644662881e-01
1.399726439682608403e-01
1.405244544323685230e-01
1.403610161622121100e-01
1.395146596028832287e-01
1.380224622361398978e-01
1.359259273354530562e-01
1.332706294835298289e-01
1.301058296103368705e-01
1.264840625420725895e-01
1.224607002610289402e-01
1.180934942612295036e-01
1.134421005437208502e-01
1.085675909272114242e-01
1.035319544533903346e-01
9.839759274092478580e-02
9.322681318726351585e-02
8.808132393260181825e-02
8.302173448561642188e-02
7.810706586592416900e-02
7.339427404402064370e-02
6.893779035631003582e-02
6.478908244147113527e-02
6.099623908589756061e-02
5.760358218146562070e-02
5.465130878984715557e-02
5.217516607562917852e-02
5.020616161734295368e-02
4.877031133314993494e-02
4.788842696841562330e-02
4.757594478796436932e-02
4.784279679878820912e-02
4.869332550178227803e-02
5.012624283623487442e-02
5.213463364085367535e-02
5.470600361267845269e-02
5.782237140292839639e-02
6.146040414928928552e-02
6.559159540995343485e-02
7.018248413845558364e-02
7.519491302248088038e-02
8.058632420680454655e-02
8.631009013264627494e-02
9.231587695520984682e-02
9.855003775011494938e-02
1.049560324896857827e-01
1.114748715634785448e-01
1.180455794355144000e-01
1.246056748748703841e-01
1.310916640677796119e-01
1.374395428191175217e-01
1.435853039799684094e-01
1.494654461963536296e-01
1.550174800624795624e-01
1.601804277801973098e-01
1.648953124744990673e-01
1.691056333925575472e-01
1.727578233203851954e-01
1.758016846858264925e-01
1.781908009783478575e-01
1.798829203036106938e-01
1.808403081027779025e-01
1.810300663011926714e-01
1.804244164067827505e-01
1.790009443532423195e-01
1.767428051746831874e-01
1.736388859047736100e-01
1.696839254120572349e-01
1.648785902117265723e-01
1.592295056301146761e-01
1.527492420389628403e-01
1.454562562195688691e-01
1.373747882595302006e-01
1.285347147243984245e-01
1.189713591805389714e-01
1.087252614712822807e-01
9.784190746357612767e-02
8.637142128439956323e-02
7.436822235282455895e-02
6.189064978270801543e-02
4.900055698038387197e-02
3.576287948958910973e-02
2.224517934045375928e-02
8.517169339046330723e-03
-5.349779112541605194e-03
-1.928314094953750488e-02
-3.320975131756504634e-02
-4.705632450318483068e-02
-6.074997400074273052e-02
-7.421872978542624899e-02
-8.739204888344720423e-02
-1.002013153812422175e-01
-1.125803260959132301e-01
-1.244657582384009753e-01
-1.357976155381146188e-01
-1.465196494619561141e-01
-1.565797523506279876e-01
-1.659303195092578509e-01
-1.745285775262168659e-01
-1.823368763515964275e-01
-1.893229429432640998e-01
-1.954600945815966606e-01
-2.007274102616360967e-01
-2.051098588911954290e-01
-2.085983833529113096e-01
-2.111899398248523740e-01
-2.128874920955068084e-01
-2.136999609521701704e-01
-2.136421290642721571e-01
-2.127345021224709143e-01
-2.110031273277397368e-01
-2.084793706496712584e-01
-2.051996545873191469e-01
-2.012051584666922355e-01
-1.965414835942163596e-01
-1.912582858528895091e-01
-1.854088785754437751e-01
-1.790498087547077177e-01
-1.722404098537670680e-01
-1.650423346559818372e-01
-1.575190717459733492e-01
-1.497354493362935135e-01
1.060660171779821276e-01
1.184527913424238271e-01
1.306382655688495542e-01
1.425517624255343563e-01
1.541237942723149013e-01
1.652865684825397530e-01
1.759744808179847797e-01
1.861245932120915436e-01
1.956770923347933566e-01
2.045757254578202122e-01
2.127682103116065593e-01
2.202066158224484371e-01
2.268477108398594955e-01
2.326532782074675620e-01
2.375903917944119370e-01
2.416316543860341226e-01
2.447553946305438821e-01
2.469458215500104359e-01
2.481931354470953699e-01
2.484935943709341288e-01
2.478495356439534003e-01
2.462693522935896773e-01
2.437674245762376235e-01
2.403640071226779140e-01
2.360850725720960996e-01
2.309621128930297029e-01
2.250318999116302510e-01
2.183362068780421994e-01
2.109214931981063523e-01
2.028385547377284659e-01
1.941421423689656534e-01
1.848905516681814132e-01
1.751451868956542257e-01
1.649701025811237953e-01
1.544315262094289043e-01
1.435973656433406631e-01
1.325367050358239596e-01
1.213192930704014849e-01
1.100150274253739041e-01
9.869343938494819224e-02
8.742318251762218329e-02
7.627152930949973597e-02
6.530387957781667863e-02
5.458328439831654916e-02
4.416998915994255204e-02
3.412099921251569856e-02
2.448967139879194843e-02
1.532533456286383489e-02
6.672941903822490750e-03
-1.427242201362158291e-03
-8.939918546787883891e-03
-1.583499054243614479e-02
-2.208776097775140557e-02
-2.767908663926560431e-02
-3.259548964111110003e-02
-3.682922465949432789e-02
-4.037830160058390738e-02
-4.324646357318030765e-02
-4.544312038039256818e-02
-4.698323808569603716e-02
-4.788718554559825979e-02
-4.818053913110003500e-02
-4.789384718068894625e-02
-4.706235603628877717e-02
-4.572569980804246093e-02
-4.392755629178068250e-02
-4.171527172238901487e-02
-3.913945728505543314e-02
-3.625356052272093316e-02
-3.311341497032080361e-02
-2.977677151311558523e-02
-2.630281510629819616e-02
-2.275167060504944619e-02
-1.918390153744913007e-02
-1.566000570649189044e-02
-1.223991153149346992e-02
-8.982479033230197918e-03
-5.945009331257702923e-03
-3.182766456305913261e-03
-7.485151859263836083e-04
1.307921511591619845e-03
2.940081990669932144e-03
4.105259141881562046e-03
4.764864249994615886e-03
4.884758666643479463e-03
4.435550714792749205e-03
3.392855509106645906e-03
1.737515661071678541e-03
-5.442188619517590586e-04
-3.460553140950201056e-03
-7.014053065427572342e-03
-1.120159520927249686e-02
-1.601436124327519639e-02
-2.143787696318605329e-02
-2.745209566950024271e-02
-3.403152529441554053e-02
-4.114539833527094959e-02
-4.875788332477890008e-02
-5.682833624905997416e-02
-6.531159001730478531e-02
-7.415827979417843885e-02
-8.331520173010124874e-02
-9.272570236737903704e-02
-1.023300957638124398e-01
-1.120661051616694825e-01
-1.218693258404292268e-01
-1.131673705627915805e+00
1.358587960592377186e+00
-1.151016473851213862e+00
3.395809814747879907e-01
-1.695520594703825712e-01
-1.783488713316405128e-01
-1.867441241256520279e-01
-1.946743807725853648e-01
-2.020785815873670788e-01
-2.088985120238387450e-01
-2.150792500915936767e-01
-2.205695900190753900e-01
-2.253224389165287000e-01
-2.292951833972721176e-01
-2.324500233439049657e-01
-2.347542702557622041e-01
-2.361806078832497380e-01
-2.367073131415912690e-01
-2.363184355987966723e-01
-2.350039341479997768e-01
-2.327597698003180948e-01
-2.295879538685489663e-01
-2.254965511517886823e-01
-2.204996380738410422e-01
-2.146172160714573951e-01
-2.078750808693778929e-01
-2.003046486152400552e-01
-1.919427401760981922e-01
-1.828313252170475356e-01
-1.730172279888326226e-01
-1.625517970429996018e-01
-1.514905413678973023e-01
-1.398927356945213196e-01
-1.278209979559182530e-01
-1.153408420957705294e-01
-1.025202096093030951e-01
-8.942898336130679360e-02
-7.613848736066720913e-02
-6.272097627726487545e-02
-4.924911856466678006e-02
-3.579547710007174866e-02
-2.243199127114091709e-02
-9.229464427479398825e-03
3.742939427236711969e-03
1.641818589789279664e-02
2.873184371117115665e-02
4.062253790397697684e-02
5.203237926767428911e-02
6.290736681090999816e-02
7.319776021065818594e-02
8.285841945111979689e-02
9.184910910146358576e-02
1.001347649542209811e-01
1.076857210343158122e-01
1.144778952920684212e-01
1.204929326097077119e-01
1.257183040775505245e-01
1.301473618305543645e-01
1.337793490758653614e-01
1.366193652846683926e-01
1.386782868644662881e-01
1.399726439682608403e-01
1.405244544323685230e-01
1.403610161622121100e-01
1.395146596028832287e-01
1.380224622361398978e-01
1.359259273354530562e-01
1.332706294835298289e-01
1.301058296103368705e-01
1.264840625420725895e-01
1.224607002610289402e-01
1.180934942612295036e-01
1.134421005437208502e-01
1.085675909272114242e-01
1.035319544533903346e-01
9.839759274092478580e-02
9.322681318726351585e-02
8.808132393260181825e-02
8.302173448561642188e-02
7.810706586592416900e-02
7.339427404402064370e-02
6.893779035631003582e-02
6.478908244147113527e-02
6.099623908589756061e-02
5.760358218146562070e-02
5.465130878984715557e-02
5.217516607562917852e-02
5.020616161734295368e-02
4.877031133314993494e-02
4.788842696841562330e-02
4.757594478796436932e-02
4.784279679878820912e-02
4.869332550178227803e-02
5.012624283623487442e-02
5.213463364085367535e-02
5.470600361267845269e-02
5.782237140292839639e-02
6.146040414928928552e-02
6.559159540995343485e-02
7.018248413845558364e-02
7.519491302248088038e-02
8.058632420680454655e-02
8.631009013264627494e-02
9.231587695520984682e-02
9.855003775011494938e-02
1.049560324896857827e-01
1.114748715634785448e-01
1.180455794355144000e-01
1.246056748748703841e-01
1.310916640677796119e-01
1.374395428191175217e-01
1.435853039799684094e-01
1.494654461963536296e-01
1.550174800624795624e-01
1.601804277801973098e-01
1.648953124744990673e-01
1.691056333925575472e-01
1.727578233203851954e-01
1.758016846858264925e-01
1.781908009783478575e-01
1.798829203036106938e-01
1.808403081027779025e-01
1.810300663011926714e-01
1.804244164067827505e-01
1.790009443532423195e-01
1.767428051746831874e-01
1.736388859047736100e-01
1.696839254120572349e-01
1.648785902117265723e-01
1.592295056301146761e-01
1.527492420389628403e-01
1.454562562195688691e-01
1.373747882595302006e-01
1.285347147243984245e-01
1.189713591805389714e-01
1.087252614712822807e-01
9.784190746357612767e-02
8.637142128439956323e-02
7.436822235282455895e-02
6.189064978270801543e-02
4.900055698038387197e-02
3.576287948958910973e-02
2.224517934045375928e-02
8.517169339046330723e-03
-5.349779112541605194e-03
-1.928314094953750488e-02
-3.320975131756504634e-02
-4.705632450318483068e-02
-6.074997400074273052e-02
-7.421872978542624899e-02
-8.739204888344720423e-02
-1.002013153812422175e-01
-1.125803260959132301e-01
-1.244657582384009753e-01
-1.357976155381146188e-01
-1.465196494619561141e-01
-1.565797523506279876e-01
-1.659303195092578509e-01
-1.745285775262168659e-01
-1.823368763515964275e-01
-1.893229429432640998e-01
-1.954600945815966606e-01
-2.007274102616360967e-01
-2.051098588911954290e-01
-2.085983833529113096e-01
-2.111899398248523740e-01
-2.128874920955068084e-01
-2.136999609521701704e-01
-2.136421290642721571e-01
-2.127345021224709143e-01
-2.110031273277397368e-01
-2.084793706496712584e-01
-2.051996545873191469e-01
-2.012051584666922355e-01
-1.965414835942163596e-01
-1.912582858528895091e-01
-1.854088785754437751e-01
-1.790498087547077177e-01
-1.722404098537670680e-01
-1.650423346559818372e-01
-1.575190717459733492e-01
-1.497354493362935135e-01
1.060660171779821276e-01
1.184527913424238271e-01
1.306382655688495542e-01
1.425517624255343563e-01
1.541237942723149013e-01
1.652865684825397530e-01
1.759744808179847797e-01
1.861245932120915436e-01
1.956770923347933566e-01
2.045757254578202122e-01
2.127682103116065593e-01
2.202066158224484371e-01
2.268477108398594955e-01
2.326532782074675620e-01
2.375903917944119370e-01
2.416316543860341226e-01
2.447553946305438821e-01
2.469458215500104359e-01
2.481931354470953699e-01
2.484935943709341288e-01
2.478495356439534003e-01
2.462693522935896773e-01
2.437674245762376235e-01
2.403640071226779140e-01
2.360850725720960996e-01
2.309621128930297029e-01
2.250318999116302510e-01
2.183362068780421994e-01
2.109214931981063523e-01
2.028385547377284659e-01
1.941421423689656534e-01
1.848905516681814132e-01
1.751451868956542257e-01
1.649701025811237953e-01
1.544315262094289043e-01
1.435973656433406631e-01
1.325367050358239596e-01
1.213192930704014849e-01
1.100150274253739041e-01
9.869343938494819224e-02
8.742318251762218329e-02
7.627152930949973597e-02
6.530387957781667863e-02
5.458328439831654916e-02
4.416998915994255204e-02
3.412099921251569856e-02
2.448967139879194843e-02
1.532533456286383489e-02
6.672941903822490750e-03
-1.427242201362158291e-03
-8.939918546787883891e-03
-1.583499054243614479e-02
-2.208776097775140557e-02
-2.767908663926560431e-02
-3.259548964111110003e-02
-3.682922465949432789e-02
-4.037830160058390738e-02
-4.324646357318030765e-02
-4.544312038039256818e-02
-4.698323808569603716e-02
-4.788718554559825979e-02
-4.818053913110003500e-02
-4.789384718068894625e-02
-4.706235603628877717e-02
-4.572569980804246093e-02
-4.392755629178068250e-02
-4.171527172238901487e-02
-3.913945728505543314e-02
-3.625356052272093316e-02
-3.311341497032080361e-02
-2.977677151311558523e-02
-2.630281510629819616e-02
-2.275167060504944619e-02
-1.918390153744913007e-02
-1.566000570649189044e-02
-1.223991153149346992e-02
-8.982479033230197918e-03
-5.945009331257702923e-03
-3.182766456305913261e-03
-7.485151859263836083e-04
1.307921511591619845e-03
2.940081990669932144e-03
4.105259141881562046e-03
4.764864249994615886e-03
4.884758666643479463e-03
4.435550714792749205e-03
3.392855509106645906e-03
1.737515661071678541e-03
-5.442188619517590586e-04
-3.460553140950201056e-03
-7.014053065427572342e-03
-1.120159520927249686e-02
-1.601436124327519639e-02
-2.143787696318605329e-02
-2.745209566950024271e-02
-3.403152529441554053e-02
-4.114539833527094959e-02
-4.875788332477890008e-02
-5.682833624905997416e-02
-6.531159001730478531e-02
-7.415827979417843885e-02
-8.331520173010124874e-02
-9.272570236737903704e-02
-1.023300957638124398e-01
-1.120661051616694825e-01
-1.218693258404292268e-01
-1.131673705627915805e+00
1.358587960592377186e+00
-1.151016473851213862e+00
3.395809814747879907e-01
-1.695520594703825712e-01
-1.783488713316405128e-01
-1.867441241256520279e-01
-1.946743807725853648e-01
-2.020785815873670788e-01
-2.088985120238387450e-01
-2.150792500915936767e-01
-2.205695900190753900e-01
-2.253224389165287000e-01
-2.292951833972721176e-01
-2.324500233439049657e-01
-2.347542702557622041e-01
-2.361806078832497380e-01
-2.367073131415912690e-01
-2.363184355987966723e-01
-2.350039341479997768e-01
-2.327597698003180948e-01
-2.295879538685489663e-01
-2.254965511517886823e-01
-2.204996380738410422e-01
-2.146172160714573951e-01
-2.078750808693778929e-01
-2.003046486152400552e-01
-1.919427401760981922e-01
-1.828313252170475356e-01
-1.730172279888326226e-01
-1.625517970429996018e-01
-1.514905413678973023e-01
-1.398927356945213196e-01
-1.278209979559182530e-01
-1.153408420957705294e-01
-1.025202096093030951e-01
-8.942898336130679360e-02
-7.613848736066720913e-02
-6.272097627726487545e-02
-4.924911856466678006e-02
-3.579547710007174866e-02
-2.243199127114091709e-02
-9.229464427479398825e-03
3.742939427236711969e-03
1.641818589789279664e-02
2.873184371117115665e-02
4.062253790397697684e-02
5.203237926767428911e-02
6.290736681090999816e-02
7.319776021065818594e-02
8.285841945111979689e-02
9.184910910146358576e-02
1.001347649542209811e-01
1.076857210343158122e-01
1.144778952920684212e-01
1.204929326097077119e-01
1.257183040775505245e-01
1.301473618305543645e-01
1.337793490758653614e-01
1.366193652846683926e-01
1.386782868644662881e-01
1.399726439682608403e-01
1.405244544323685230e-01
1.403610161622121100e-01
1.395146596028832287e-01
1.380224622361398978e-01
1.359259273354530562e-01
1.332706294835298289e-01
1.301058296103368705e-01
1.264840625420725895e-01
1.224607002610289402e-01
1.180934942612295036e-01
1.134421005437208502e-01
1.085675909272114242e-01
1.035319544533903346e-01
9.839759274092478580e-02
9.322681318726351585e-02
8.808132393260181825e-02
8.302173448561642188e-02
7.810706586592416900e-02
7.339427404402064370e-02
6.893779035631003582e-02
6.478908244147113527e-02
6.099623908589756061e-02
5.760358218146562070e-02
5.465130878984715557e-02
5.217516607562917852e-02
5.020616161734295368e-02
4.877031133314993494e-02
4.788842696841562330e-02
4.757594478796436932e-02
4.784279679878820912e-02
4.869332550178227803e-02
5.012624283623487442e-02
5.213463364085367535e-02
5.470600361267845269e-02
5.782237140292839639e-02
6.146040414928928552e-02
6.559159540995343485e-02
7.018248413845558364e-02
7.519491302248088038e-02
8.058632420680454655e-02
8.631009013264627494e-02
9.231587695520984682e-02
9.855003775011494938e-02
1.049560324896857827e-01
1.114748715634785448e-01
1.180455794355144000e-01
1.246056748748703841e-01
1.310916640677796119e-01
1.374395428191175217e-01
1.435853039799684094e-01
1.494654461963536296e-01
1.550174800624795624e-01
1.601804277801973098e-01
1.648953124744990673e-01
1.691056333925575472e-01
1.727578233203851954e-01
1.758016846858264925e-01
1.781908009783478575e-01
1.798829203036106938e-01
1.808403081027779025e-01
1.810300663011926714e-01
1.804244164067827505e-01
1.790009443532423195e-01
1.767428051746831874e-01
1.736388859047736100e-01
1.696839254120572349e-01
1.648785902117265723e-01
1.592295056301146761e-01
1.527492420389628403e-01
1.454562562195688691e-01
1.373747882595302006e-01
1.285347147243984245e-01
1.189713591805389714e-01
1.087252614712822807e-01
9.784190746357612767e-02
8.637142128439956323e-02
7.436822235282455895e-02
6.189064978270801543e-02
4.900055698038387197e-02
3.576287948958910973e-02
2.224517934045375928e-02
8.517169339046330723e-03
-5.349779112541605194e-03
-1.928314094953750488e-02
-3.320975131756504634e-02
-4.705632450318483068e-02
-6.074997400074273052e-02
-7.421872978542624899e-02
-8.739204888344720423e-02
-1.002013153812422175e-01
-1.125803260959132301e-01
-1.244657582384009753e-01
-1.357976155381146188e-01
-1.465196494619561141e-01
-1.565797523506279876e-01
-1.659303195092578509e-01
-1.745285775262168659e-01
-1.823368763515964275e-01
-1.893229429432640998e-01
-1.954600945815966606e-01
-2.007274102616360967e-01
-2.051098588911954290e-01
-2.085983833529113096e-01
-2.111899398248523740e-01
-2.128874920955068084e-01
-2.136999609521701704e-01
-2.136421290642721571e-01
-2.127345021224709143e-01
-2.110031273277397368e-01
-2.084793706496712584e-01
-2.051996545873191469e-01
-2.012051584666922355e-01
-1.965414835942163596e-01
-1.912582858528895091e-01
-1.854088785754437751e-01
-1.790498087547077177e-01
-1.722404098537670680e-01
-1.650423346559818372e-01
-1.575190717459733492e-01
-1.497354493362935135e-01
1.060660171779821276e-01
1.184527913424238271e-01
1.306382655688495542e-01
1.425517624255343563e-01
1.541237942723149013e-01
1.652865684825397530e-01
1.759744808179847797e-01
1.861245932120915436e-01
1.956770923347933566e-01
2.045757254578202122e-01
2.127682103116065593e-01
2.202066158224484371e-01
2.268477108398594955e-01
2.326532782074675620e-01
2.375903917944119370e-01
2.416316543860341226e-01
2.447553946305438821e-01
2.469458215500104359e-01
2.481931354470953699e-01
2.484935943709341288e-01
2.478495356439534003e-01
2.462693522935896773e-01
2.437674245762376235e-01
2.403640071226779140e-01
2.360850725720960996e-01
2.309621128930297029e-01
2.250318999116302510e-01
2.183362068780421994e-01
2.109214931981063523e-01
2.028385547377284659e-01
1.941421423689656534e-01
1.848905516681814132e-01
1.751451868956542257e-01
1.649701025811237953e-01
1.544315262094289043e-01
1.435973656433406631e-01
1.325367050358239596e-01
1.213192930704014849e-01
1.100150274253739041e-01
9.869343938494819224e-02
8.742318251762218329e-02
7.627152930949973597e-02
6.530387957781667863e-02
5.458328439831654916e-02
4.416998915994255204e-02
3.412099921251569856e-02
2.448967139879194843e-02
1.532533456286383489e-02
6.672941903822490750e-03
-1.427242201362158291e-03
-8.939918546787883891e-03
-1.583499054243614479e-02
-2.208776097775140557e-02
-2.767908663926560431e-02
-3.259548964111110003e-02
-3.682922465949432789e-02
-4.037830160058390738e-02
-4.324646357318030765e-02
-4.544312038039256818e-02
-4.698323808569603716e-02
-4.788718554559825979e-02
-4.818053913110003500e-02
-4.789384718068894625e-02
-4.706235603628877717e-02
-4.572569980804246093e-02
-4.392755629178068250e-02
-4.171527172238901487e-02
-3.913945728505543314e-02
-3.625356052272093316e-02
-3.311341497032080361e-02
-2.977677151311558523e-02
-2.630281510629819616e-02
-2.275167060504944619e-02
-1.918390153744913007e-02
-1.566000570649189044e-02
-1.223991153149346992e-02
-8.982479033230197918e-03
-5.945009331257702923e-03
-3.182766456305913261e-03
-7.485151859263836083e-04
1.307921511591619845e-03
2.940081990669932144e-03
4.105259141881562046e-03
4.764864249994615886e-03
4.884758666643479463e-03
4.435550714792749205e-03
3.392855509106645906e-03
1.737515661071678541e-03
-5.442188619517590586e-04
-3.460553140950201056e-03
-7.014053065427572342e-03
-1.120159520927249686e-02
-1.601436124327519639e-02
-2.143787696318605329e-02
-2.745209566950024271e-02
-3.403152529441554053e-02
-4.114539833527094959e-02
-4.875788332477890008e-02
-5.682833624905997416e-02
-6.531159001730478531e-02
-7.415827979417843885e-02
-8.331520173010124874e-02
-9.272570236737903704e-02
-1.023300957638124398e-01
-1.120661051616694825e-01
-1.218693258404292268e-01
-1.131673705627915805e+00
1.358587960592377186e+00
-1.151016473851213862e+00
3.395809814747879907e-01
-1.695520594703825712e-01
-1.783488713316405128e-01
-1.867441241256520279e-01
-1.946743807725853648e-01
-2.020785815873670788e-01
-2.088985120238387450e-01
-2.150792500915936767e-01
-2.205695900190753900e-01
-2.253224389165287000e-01
-2.292951833972721176e-01
-2.324500233439049657e-01
-2.347542702557622041e-01
-2.361806078832497380e-01
-2.367073131415912690e-01
-2.363184355987966723e-01
-2.350039341479997768e-01
-2.327597698003180948e-01
-2.295879538685489663e-01
-2.254965511517886823e-01
-2.204996380738410422e-01
-2.146172160714573951e-01
-2.078750808693778929e-01
-2.003046486152400552e-01
-1.919427401760981922e-01
-1.828313252170475356e-01
-1.730172279888326226e-01
-1.625517970429996018e-01
-1.514905413678973023e-01
-1.398927356945213196e-01
-1.278209979559182530e-01
-1.153408420957705294e-01
-1.025202096093030951e-01
-8.942898336130679360e-02
-7.613848736066720913e-02
-6.272097627726487545e-02
-4.924911856466678006e-02
-3.579547710007174866e-02
-2.243199127114091709e-02
-9.229464427479398825e-03
3.742939427236711969e-03
1.641818589789279664e-02
2.873184371117115665e-02
4.062253790397697684e-02
5.203237926767428911e-02
6.290736681090999816e-02
7.319776021065818594e-02
8.285841945111979689e-02
9.184910910146358576e-02
1.001347649542209811e-01
1.076857210343158122e-01
1.144778952920684212e-01
1.204929326097077119e-01
1.257183040775505245e-01
1.301473618305543645e-01
1.337793490758653614e-01
1.366193652846683926e-01
1.386782868644662881e-01
1.399726439682608403e-01
1.405244544323685230e-01
1.403610161622121100e-01
1.395146596028832287e-01
1.380224622361398978e-01
1.359259273354530562e-01
1.332706294835298289e-01
1.301058296103368705e-01
1.264840625420725895e-01
1.224607002610289402e-01
1.180934942612295036e-01
1.134421005437208502e-01
1.085675909272114242e-01
1.035319544533903346e-01
9.839759274092478580e-02
9.322681318726351585e-02
8.808132393260181825e-02
8.302173448561642188e-02
7.810706586592416900e-02
7.339427404402064370e-02
6.893779035631003582e-02
6.478908244147113527e-02
6.099623908589756061e-02
5.760358218146562070e-02
5.465130878984715557e-02
5.217516607562917852e-02
5.020616161734295368e-02
4.877031133314993494e-02
4.788842696841562330e-02
4.757594478796436932e-02
4.784279679878820912e-02
4.869332550178227803e-02
5.012624283623487442e-02
5.213463364085367535e-02
5.470600361267845269e-02
5.782237140292839639e-02
6.146040414928928552e-02
6.559159540995343485e-02
7.018248413845558364e-02
7.519491302248088038e-02
8.058632420680454655e-02
8.631009013264627494e-02
9.231587695520984682e-02
9.855003775011494938e-02
1.049560324896857827e-01
1.114748715634785448e-01
1.180455794355144000e-01
1.246056748748703841e-01
1.310916640677796119e-01
1.374395428191175217e-01
1.435853039799684094e-01
1.494654461963536296e-01
1.550174800624795624e-01
1.601804277801973098e-01
1.648953124744990673e-01
1.691056333925575472e-01
1.727578233203851954e-01
1.758016846858264925e-01
1.781908009783478575e-01
1.798829203036106938e-01
1.808403081027779025e-01
1.810300663011926714e-01
1.804244164067827505e-01
1.790009443532423195e-01
1.767428051746831874e-01
1.736388859047736100e-01
1.696839254120572349e-01
1.648785902117265723e-01
1.592295056301146761e-01
1.527492420389628403e-01
1.454562562195688691e-01
1.373747882595302006e-01
1.285347147243984245e-01
1.189713591805389714e-01
1.087252614712822807e-01
9.784190746357612767e-02
8.637142128439956323e-02
7.436822235282455895e-02
6.189064978270801543e-02
4.900055698038387197e-02
3.576287948958910973e-02
2.224517934045375928e-02
8.517169339046330723e-03
-5.349779112541605194e-03
-1.928314094953750488e-02
-3.320975131756504634e-02
-4.705632450318483068e-02
-6.074997400074273052e-02
-7.421872978542624899e-02
-8.739204888344720423e-02
-1.002013153812422175e-01
-1.125803260959132301e-01
-1.244657582384009753e-01
-1.357976155381146188e-01
-1.465196494619561141e-01
-1.565797523506279876e-01
-1.659303195092578509e-01
-1.745285775262168659e-01
-1.823368763515964275e-01
-1.893229429432640998e-01
-1.954600945815966606e-01
-2.007274102616360967e-01
-2.051098588911954290e-01
-2.085983833529113096e-01
-2.111899398248523740e-01
-2.128874920955068084e-01
-2.136999609521701704e-01
-2.136421290642721571e-01
-2.127345021224709143e-01
-2.110031273277397368e-01
-2.084793706496712584e-01
-2.051996545873191469e-01
-2.012051584666922355e-01
-1.965414835942163596e-01
-1.912582858528895091e-01
-1.854088785754437751e-01
-1.790498087547077177e-01
-1.722404098537670680e-01
-1.650423346559818372e-01
-1.575190717459733492e-01
-1.497354493362935135e-01
1.060660171779821276e-01
1.184527913424238271e-01
1.306382655688495542e-01
1.425517624255343563e-01
1.541237942723149013e-01
1.652865684825397530e-01
1.759744808179847797e-01
1.861245932120915436e-01
1.956770923347933566e-01
2.045757254578202122e-01
2.127682103116065593e-01
2.202066158224484371e-01
2.268477108398594955e-01
2.326532782074675620e-01
2.375903917944119370e-01
2.416316543860341226e-01
2.447553946305438821e-01
2.469458215500104359e-01
2.481931354470953699e-01
2.484935943709341288e-01
2.478495356439534003e-01
2.462693522935896773e-01
2.437674245762376235e-01
2.403640071226779140e-01
2.360850725720960996e-01
2.309621128930297029e-01
2.250318999116302510e-01
2.183362068780421994e-01
2.109214931981063523e-01
2.028385547377284659e-01
1.941421423689656534e-01
1.848905516681814132e-01
1.751451868956542257e-01
1.649701025811237953e-01
1.544315262094289043e-01
1.435973656433406631e-01
1.325367050358239596e-01
1.213192930704014849e-01
1.100150274253739041e-01
9.869343938494819224e-02
8.742318251762218329e-02
7.627152930949973597e-02
6.530387957781667863e-02
5.458328439831654916e-02
4.416998915994255204e-02
3.412099921251569856e-02
2.448967139879194843e-02
1.532533456286383489e-02
6.672941903822490750e-03
-1.427242201362158291e-03
-8.939918546787883891e-03
-1.583499054243614479e-02
-2.208776097775140557e-02
-2.767908663926560431e-02
-3.259548964111110003e-02
-3.682922465949432789e-02
-4.037830160058390738e-02
-4.324646357318030765e-02
-4.544312038039256818e-02
-4.698323808569603716e-02
-4.788718554559825979e-02
-4.818053913110003500e-02
-4.789384718068894625e-02
-4.706235603628877717e-02
-4.572569980804246093e-02
-4.392755629178068250e-02
-4.171527172238901487e-02
-3.913945728505543314e-02
-3.625356052272093316e-02
-3.311341497032080361e-02
-2.977677151311558523e-02
-2.630281510629819616e-02
-2.275167060504944619e-02
-1.918390153744913007e-02
-1.566000570649189044e-02
-1.223991153149346992e-02
-8.982479033230197918e-03
-5.945009331257702923e-03
-3.182766456305913261e-03
-7.485151859263836083e-04
1.307921511591619845e-03
2.940081990669932144e-03
4.105259141881562046e-03
4.764864249994615886e-03
4.884758666643479463e-03
4.435550714792749205e-03
3.392855509106645906e-03
1.737515661071678541e-03
-5.442188619517590586e-04
-3.460553140950201056e-03
-7.014053065427572342e-03
-1.120159520927249686e-02
-1.601436124327519639e-02
-2.143787696318605329e-02
-2.745209566950024271e-02
-3.403152529441554053e-02
-4.114539833527094959e-02
-4.875788332477890008e-02
-5.682833624905997416e-02
-6.531159001730478531e-02
-7.415827979417843885e-02
-8.331520173010124874e-02
-9.272570236737903704e-02
-1.023300957638124398e-01
-1.120661051616694825e-01
-1.218693258404292268e-01
-1.131673705627915805e+00
1.358587960592377186e+00
-1.151016473851213862e+00
3.395809814747879907e-01
-1.695520594703825712e-01
-1.783488713316405128e-01
-1.867441241256520279e-01
-1.946743807725853648e-01
-2.020785815873670788e-01
-2.088985120238387450e-01
-2.150792500915936767e-01
-2.205695900190753900e-01
-2.253224389165287000e-01
-2.292951833972721176e-01
-2.324500233439049657e-01
-2.347542702557622041e-01
-2.361806078832497380e-01
-2.367073131415912690e-01
-2.363184355987966723e-01
-2.350039341479997768e-01
-2.327597698003180948e-01
-2.295879538685489663e-01
-2.254965511517886823e-01
-2.204996380738410422e-01
-2.146172160714573951e-01
-2.078750808693778929e-01
-2.003046486152400552e-01
-1.919427401760981922e-01
-1.828313252170475356e-01
-1.730172279888326226e-01
-1.625517970429996018e-01
-1.514905413678973023e-01
-1.398927356945213196e-01
-1.278209979559182530e-01
-1.153408420957705294e-01
-1.025202096093030951e-01
-8.942898336130679360e-02
-7.613848736066720913e-02
-6.272097627726487545e-02
-4.924911856466678006e-02
-3.579547710007174866e-02
-2.243199127114091709e-02
-9.229464427479398825e-03
3.742939427236711969e-03
1.641818589789279664e-02
2.873184371117115665e-02
4.062253790397697684e-02
5.203237926767428911e-02
6.290736681090999816e-02
7.319776021065818594e-02
8.285841945111979689e-02
9.184910910146358576e-02
1.001347649542209811e-01
1.076857210343158122e-01
1.144778952920684212e-01
1.204929326097077119e-01
1.257183040775505245e-01
1.301473618305543645e-01
1.337793490758653614e-01
1.366193652846683926e-01
1.386782868644662881e-01
1.399726439682608403e-01
1.405244544323685230e-01
1.403610161622121100e-01
1.395146596028832287e-01
1.380224622361398978e-01
1.359259273354530562e-01
1.332706294835298289e-01
1.301058296103368705e-01
1.264840625420725895e-01
1.224607002610289402e-01
1.180934942612295036e-01
1.134421005437208502e-01
1.085675909272114242e-01
1.035319544533903346e-01
9.839759274092478580e-02
9.322681318726351585e-02
8.808132393260181825e-02
8.302173448561642188e-02
7.810706586592416900e-02
7.339427404402064370e-02
6.893779035631003582e-02
6.478908244147113527e-02
6.099623908589756061e-02
5.760358218146562070e-02
5.465130878984715557e-02
5.217516607562917852e-02
5.020616161734295368e-02
4.877031133314993494e-02
4.788842696841562330e-02
4.757594478796436932e-02
4.784279679878820912e-02
4.869332550178227803e-02
5.012624283623487442e-02
5.213463364085367535e-02
5.470600361267845269e-02
5.782237140292839639e-02
6.146040414928928552e-02
6.559159540995343485e-02
7.018248413845558364e-02
7.519491302248088038e-02
8.058632420680454655e-02
8.631009013264627494e-02
9.231587695520984682e-02
9.855003775011494938e-02
1.049560324896857827e-01
1.114748715634785448e-01
1.180455794355144000e-01
1.246056748748703841e-01
1.310916640677796119e-01
1.374395428191175217e-01
1.435853039799684094e-01
1.494654461963536296e-01
1.550174800624795624e-01
1.601804277801973098e-01
1.648953124744990673e-01
1.691056333925575472e-01
1.727578233203851954e-01
1.758016846858264925e-01
1.781908009783478575e-01
1.798829203036106938e-01
1.808403081027779025e-01
1.810300663011926714e-01
1.804244164067827505e-01
1.790009443532423195e-01
1.767428051746831874e-01
1.736388859047736100e-01
1.696839254120572349e-01
1.648785902117265723e-01
1.592295056301146761e-01
1.527492420389628403e-01
1.454562562195688691e-01
1.373747882595302006e-01
1.285347147243984245e-01
1.189713591805389714e-01
1.087252614712822807e-01
9.784190746357612767e-02
8.637142128439956323e-02
7.436822235282455895e-02
6.189064978270801543e-02
4.900055698038387197e-02
3.576287948958910973e-02
2.224517934045375928e-02
8.517169339046330723e-03
-5.349779112541605194e-03
-1.928314094953750488e-02
-3.320975131756504634e-02
-4.705632450318483068e-02
-6.074997400074273052e-02
-7.421872978542624899e-02
-8.739204888344720423e-02
-1.002013153812422175e-01
-1.125803260959132301e-01
-1.244657582384009753e-01
-1.357976155381146188e-01
-1.465196494619561141e-01
-1.565797523506279876e-01
-1.659303195092578509e-01
-1.745285775262168659e-01
-1.823368763515964275e-01
-1.893229429432640998e-01
-1.954600945815966606e-01
-2.007274102616360967e-01
-2.051098588911954290e-01
-2.085983833529113096e-01
-2.111899398248523740e-01
-2.128874920955068084e-01
-2.136999609521701704e-01
-2.136421290642721571e-01
-2.127345021224709143e-01
-2.110031273277397368e-01
-2.084793706496712584e-01
-2.051996545873191469e-01
-2.012051584666922355e-01
-1.965414835942163596e-01
-1.912582858528895091e-01
-1.854088785754437751e-01
-1.790498087547077177e-01
-1.722404098537670680e-01
-1.650423346559818372e-01
-1.575190717459733492e-01
-1.497354493362935135e-01
1.060660171779821276e-01
1.184527913424238271e-01
1.306382655688495542e-01
1.425517624255343563e-01
1.541237942723149013e-01
1.652865684825397530e-01
1.759744808179847797e-01
1.861245932120915436e-01
1.956770923347933566e-01
2.045757254578202122e-01
2.127682103116065593e-01
2.202066158224484371e-01
2.268477108398594955e-01
2.326532782074675620e-01
2.375903917944119370e-01
2.416316543860341226e-01
2.447553946305438821e-01
2.469458215500104359e-01
2.481931354470953699e-01
2.484935943709341288e-01
2.478495356439534003e-01
2.462693522935896773e-01
2.437674245762376235e-01
2.403640071226779140e-01
2.360850725720960996e-01
2.309621128930297029e-01
2.250318999116302510e-01
2.183362068780421994e-01
2.109214931981063523e-01
2.028385547377284659e-01
1.941421423689656534e-01
1.848905516681814132e-01
1.751451868956542257e-01
1.649701025811237953e-01
1.544315262094289043e-01
1.435973656433406631e-01
1.325367050358239596e-01
1.213192930704014849e-01
1.100150274253739041e-01
9.869343938494819224e-02
8.742318251762218329e-02
7.627152930949973597e-02
6.530387957781667863e-02
5.458328439831654916e-02
4.416998915994255204e-02
3.412099921251569856e-02
2.448967139879194843e-02
1.532533456286383489e-02
6.672941903822490750e-03
-1.427242201362158291e-03
-8.939918546787883891e-03
-1.583499054243614479e-02
-2.208776097775140557e-02
-2.767908663926560431e-02
-3.259548964111110003e-02
-3.682922465949432789e-02
-4.037830160058390738e-02
-4.324646357318030765e-02
-4.544312038039256818e-02
-4.698323808569603716e-02
-4.788718554559825979e-02
-4.818053913110003500e-02
-4.789384718068894625e-02
-4.706235603628877717e-02
-4.572569980804246093e-02
-4.392755629178068250e-02
-4.171527172238901487e-02
-3.913945728505543314e-02
-3.625356052272093316e-02
-3.311341497032080361e-02
-2.977677151311558523e-02
-2.630281510629819616e-02
-2.275167060504944619e-02
-1.918390153744913007e-02
-1.566000570649189044e-02
-1.223991153149346992e-02
-8.982479033230197918e-03
-5.945009331257702923e-03
-3.182766456305913261e-03
-7.485151859263836083e-04
1.307921511591619845e-03
2.940081990669932144e-03
4.105259141881562046e-03
4.764864249994615886e-03
4.884758666643479463e-03
4.435550714792749205e-03
3.392855509106645906e-03
1.737515661071678541e-03
-5.442188619517590586e-04
-3.460553140950201056e-03
-7.014053065427572342e-03
-1.120159520927249686e-02
-1.601436124327519639e-02
-2.143787696318605329e-02
-2.745209566950024271e-02
-3.403152529441554053e-02
-4.114539833527094959e-02
-4.875788332477890008e-02
-5.682833624905997416e-02
-6.531159001730478531e-02
-7.415827979417843885e-02
-8.331520173010124874e-02
-9.272570236737903704e-02
-1.023300957638124398e-01
-1.120661051616694825e-01
-1.218693258404292268e-01
-1.131673705627915805e+00
1.358587960592377186e+00
-1.151016473851213862e+00
3.395809814747879907e-01
-1.695520594703825712e-01
-1.783488713316405128e-01
-1.867441241256520279e-01
-1.946743807725853648e-01
-2.020785815873670788e-01
-2.088985120238387450e-01
-2.150792500915936767e-01
-2.205695900190753900e-01
-2.253224389165287000e-01
-2.292951833972721176e-01
-2.324500233439049657e-01
-2.347542702557622041e-01
-2.361806078832497380e-01
-2.367073131415912690e-01
-2.363184355987966723e-01
-2.350039341479997768e-01
-2.327597698003180948e-01
-2.295879538685489663e-01
-2.254965511517886823e-01
-2.204996380738410422e-01
-2.146172160714573951e-01
-2.078750808693778929e-01
-2.003046486152400552e-01
-1.919427401760981922e-01
-1.828313252170475356e-01
-1.730172279888326226e-01
-1.625517970429996018e-01
-1.514905413678973023e-01
-1.398927356945213196e-01
-1.278209979559182530e-01
-1.153408420957705294e-01
-1.025202096093030951e-01
-8.942898336130679360e-02
-7.613848736066720913e-02
-6.272097627726487545e-02
-4.924911856466678006e-02
-3.579547710007174866e-02
-2.243199127114091709e-02
-9.229464427479398825e-03
3.742939427236711969e-03
1.641818589789279664e-02
2.873184371117115665e-02
4.062253790397697684e-02
5.203237926767428911e-02
6.290736681090999816e-02
7.319776021065818594e-02
8.285841945111979689e-02
9.184910910146358576e-02
1.001347649542209811e-01
1.076857210343158122e-01
1.144778952920684212e-01
1.204929326097077119e-01
1.257183040775505245e-01
1.301473618305543645e-01
1.337793490758653614e-01
1.366193652846683926e-01
1.386782868644662881e-01
1.399726439682608403e-01
1.405244544323685230e-01
1.403610161622121100e-01
1.395146596028832287e-01
1.380224622361398978e-01
1.359259273354530562e-01
1.332706294835298289e-01
1.301058296103368705e-01
1.264840625420725895e-01
1.224607002610289402e-01
1.180934942612295036e-01
1.134421005437208502e-01
1.085675909272114242e-01
1.035319544533903346e-01
9.839759274092478580e-02
9.322681318726351585e-02
8.808132393260181825e-02
8.302173448561642188e-02
7.810706586592416900e-02
7.339427404402064370e-02
6.893779035631003582e-02
6.478908244147113527e-02
6.099623908589756061e-02
5.760358218146562070e-02
5.465130878984715557e-02
5.217516607562917852e-02
5.020616161734295368e-02
4.877031133314993494e-02
4.788842696841562330e-02
4.757594478796436932e-02
4.784279679878820912e-02
4.869332550178227803e-02
5.012624283623487442e-02
5.213463364085367535e-02
5.470600361267845269e-02
5.782237140292839639e-02
6.146040414928928552e-02
6.559159540995343485e-02
7.018248413845558364e-02
7.519491302248088038e-02
8.058632420680454655e-02
8.631009013264627494e-02
9.231587695520984682e-02
9.855003775011494938e-02
1.049560324896857827e-01
1.114748715634785448e-01
1.180455794355144000e-01
1.246056748748703841e-01
1.310916640677796119e-01
1.374395428191175217e-01
1.435853039799684094e-01
1.494654461963536296e-01
1.550174800624795624e-01
1.601804277801973098e-01
1.648953124744990673e-01
1.691056333925575472e-01
1.727578233203851954e-01
1.758016846858264925e-01
1.781908009783478575e-01
1.798829203036106938e-01
1.808403081027779025e-01
1.810300663011926714e-01
1.804244164067827505e-01
1.790009443532423195e-01
1.767428051746831874e-01
1.736388859047736100e-01
1.696839254120572349e-01
1.648785902117265723e-01
1.592295056301146761e-01
1.527492420389628403e-01
1.454562562195688691e-01
1.373747882595302006e-01
1.285347147243984245e-01
1.189713591805389714e-01
1.087252614712822807e-01
9.784190746357612767e-02
8.637142128439956323e-02
7.436822235282455895e-02
6.189064978270801543e-02
4.900055698038387197e-02
3.576287948958910973e-02
2.224517934045375928e-02
8.517169339046330723e-03
-5.349779112541605194e-03
-1.928314094953750488e-02
-3.320975131756504634e-02
-4.705632450318483068e-02
-6.074997400074273052e-02
-7.421872978542624899e-02
-8.739204888344720423e-02
-1.002013153812422175e-01
-1.125803260959132301e-01
-1.244657582384009753e-01
-1.357976155381146188e-01
-1.465196494619561141e-01
-1.565797523506279876e-01
-1.659303195092578509e-01
-1.745285775262168659e-01
-1.823368763515964275e-01
-1.893229429432640998e-01
-1.954600945815966606e-01
-2.007274102616360967e-01
-2.051098588911954290e-01
-2.085983833529113096e-01
-2.111899398248523740e-01
-2.128874920955068084e-01
-2.136999609521701704e-01
-2.136421290642721571e-01
-2.127345021224709143e-01
-2.110031273277397368e-01
-2.084793706496712584e-01
-2.051996545873191469e-01
-2.012051584666922355e-01
-1.965414835942163596e-01
-1.912582858528895091e-01
-1.854088785754437751e-01
-1.790498087547077177e-01
-1.722404098537670680e-01
-1.650423346559818372e-01
-1.575190717459733492e-01
-1.497354493362935135e-01
1.060660171779821276e-01
1.184527913424238271e-01
1.306382655688495542e-01
1.425517624255343563e-01
1.541237942723149013e-01
1.652865684825397530e-01
1.759744808179847797e-01
1.861245932120915436e-01
1.956770923347933566e-01
2.045757254578202122e-01
2.127682103116065593e-01
2.202066158224484371e-01
2.268477108398594955e-01
2.326532782074675620e-01
2.375903917944119370e-01
2.416316543860341226e-01
2.447553946305438821e-01
2.469458215500104359e-01
2.481931354470953699e-01
2.484935943709341288e-01
2.478495356439534003e-01
2.462693522935896773e-01
2.437674245762376235e-01
2.403640071226779140e-01
2.360850725720960996e-01
2.309621128930297029e-01
2.250318999116302510e-01
2.183362068780421994e-01
2.109214931981063523e-01
2.028385547377284659e-01
1.941421423689656534e-01
1.848905516681814132e-01
1.751451868956542257e-01
1.649701025811237953e-01
1.544315262094289043e-01
1.435973656433406631e-01
1.325367050358239596e-01
1.213192930704014849e-01
1.100150274253739041e-01
9.869343938494819224e-02
8.742318251762218329e-02
7.627152930949973597e-02
6.530387957781667863e-02
5.458328439831654916e-02
4.416998915994255204e-02
3.412099921251569856e-02
2.448967139879194843e-02
1.532533456286383489e-02
6.672941903822490750e-03
-1.427242201362158291e-03
-8.939918546787883891e-03
-1.583499054243614479e-02
-2.208776097775140557e-02
-2.767908663926560431e-02
-3.259548964111110003e-02
-3.682922465949432789e-02
-4.037830160058390738e-02
-4.324646357318030765e-02
-4.544312038039256818e-02
-4.698323808569603716e-02
-4.788718554559825979e-02
-4.818053913110003500e-02
-4.789384718068894625e-02
-4.706235603628877717e-02
-4.572569980804246093e-02
-4.392755629178068250e-02
-4.171527172238901487e-02
-3.913945728505543314e-02
-3.625356052272093316e-02
-3.311341497032080361e-02
-2.977677151311558523e-02
-2.630281510629819616e-02
-2.275167060504944619e-02
-1.918390153744913007e-02
-1.566000570649189044e-02
-1.223991153149346992e-02
-8.982479033230197918e-03
-5.945009331257702923e-03
-3.182766456305913261e-03
-7.485151859263836083e-04
1.307921511591619845e-03
2.940081990669932144e-03
4.105259141881562046e-03
4.764864249994615886e-03
4.884758666643479463e-03
4.435550714792749205e-03
3.392855509106645906e-03
1.737515661071678541e-03
-5.442188619517590586e-04
-3.460553140950201056e-03
-7.014053065427572342e-03
-1.120159520927249686e-02
-1.601436124327519639e-02
-2.143787696318605329e-02
-2.745209566950024271e-02
-3.403152529441554053e-02
-4.114539833527094959e-02
-4.875788332477890008e-02
-5.682833624905997416e-02
-6.531159001730478531e-02
-7.415827979417843885e-02
-8.331520173010124874e-02
-9.272570236737903704e-02
-1.023300957638124398e-01
-1.120661051616694825e-01
-1.218693258404292268e-01
-1.131673705627915805e+00
1.358587960592377186e+00
-1.151016473851213862e+00
3.395809814747879907e-01
-1.695520594703825712e-01
-1.783488713316405128e-01
-1.867441241256520279e-01
-1.946743807725853648e-01
-2.020785815873670788e-01
-2.088985120238387450e-01
-2.150792500915936767e-01
-2.205695900190753900e-01
-2.253224389165287000e-01
-2.292951833972721176e-01
-2.324500233439049657e-01
-2.347542702557622041e-01
-2.361806078832497380e-01
-2.367073131415912690e-01
-2.363184355987966723e-01
-2.350039341479997768e-01
-2.327597698003180948e-01
-2.295879538685489663e-01
-2.254965511517886823e-01
-2.204996380738410422e-01
-2.146172160714573951e-01
-2.078750808693778929e-01
-2.003046486152400552e-01
-1.919427401760981922e-01
-1.828313252170475356e-01
-1.730172279888326226e-01
-1.625517970429996018e-01
-1.514905413678973023e-01
-1.398927356945213196e-01
-1.278209979559182530e-01
-1.153408420957705294e-01
-1.025202096093030951e-01
-8.942898336130679360e-02
-7.613848736066720913e-02
-6.272097627726487545e-02
-4.924911856466678006e-02
-3.579547710007174866e-02
-2.243199127114091709e-02
-9.229464427479398825e-03
3.742939427236711969e-03
1.641818589789279664e-02
2.873184371117115665e-02
4.062253790397697684e-02
5.203237926767428911e-02
6.290736681090999816e-02
7.319776021065818594e-02
8.285841945111979689e-02
9.184910910146358576e-02
1.001347649542209811e-01
1.076857210343158122e-01
1.144778952920684212e-01
1.204929326097077119e-01
1.257183040775505245e-01
1.301473618305543645e-01
1.337793490758653614e-01
1.366193652846683926e-01
1.386782868644662881e-01
1.399726439682608403e-01
1.405244544323685230e-01
1.403610161622121100e-01
1.395146596028832287e-01
1.380224622361398978e-01
1.359259273354530562e-01
1.332706294835298289e-01
1.301058296103368705e-01
1.264840625420725895e-01
1.224607002610289402e-01
1.180934942612295036e-01
1.134421005437208502e-01
1.085675909272114242e-01
1.035319544533903346e-01
9.839759274092478580e-02
9.322681318726351585e-02
8.808132393260181825e-02
8.302173448561642188e-02
7.810706586592416900e-02
7.339427404402064370e-02
6.893779035631003582e-02
6.478908244147113527e-02
6.099623908589756061e-02
5.760358218146562070e-02
5.465130878984715557e-02
5.217516607562917852e-02
5.020616161734295368e-02
4.877031133314993494e-02
4.788842696841562330e-02
4.757594478796436932e-02
4.784279679878820912e-02
4.869332550178227803e-02
5.012624283623487442e-02
5.213463364085367535e-02
5.470600361267845269e-02
5.782237140292839639e-02
6.146040414928928552e-02
6.559159540995343485e-02
7.018248413845558364e-02
7.519491302248088038e-02
8.058632420680454655e-02
8.631009013264627494e-02
9.231587695520984682e-02
9.855003775011494938e-02
1.049560324896857827e-01
1.114748715634785448e-01
1.180455794355144000e-01
1.246056748748703841e-01
1.310916640677796119e-01
1.374395428191175217e-01
1.435853039799684094e-01
1.494654461963536296e-01
1.550174800624795624e-01
1.601804277801973098e-01
1.648953124744990673e-01
1.691056333925575472e-01
1.727578233203851954e-01
1.758016846858264925e-01
1.781908009783478575e-01
1.798829203036106938e-01
1.808403081027779025e-01
1.810300663011926714e-01
1.804244164067827505e-01
1.790009443532423195e-01
1.767428051746831874e-01
1.736388859047736100e-01
1.696839254120572349e-01
1.648785902117265723e-01
1.592295056301146761e-01
1.527492420389628403e-01
1.454562562195688691e-01
1.373747882595302006e-01
1.285347147243984245e-01
1.189713591805389714e-01
1.087252614712822807e-01
9.784190746357612767e-02
8.637142128439956323e-02
7.436822235282455895e-02
6.189064978270801543e-02
4.900055698038387197e-02
3.576287948958910973e-02
2.224517934045375928e-02
8.517169339046330723e-03
-5.349779112541605194e-03
-1.928314094953750488e-02
-3.320975131756504634e-02
-4.705632450318483068e-02
-6.074997400074273052e-02
-7.421872978542624899e-02
-8.739204888344720423e-02
-1.002013153812422175e-01
-1.125803260959132301e-01
-1.244657582384009753e-01
-1.357976155381146188e-01
-1.465196494619561141e-01
-1.565797523506279876e-01
-1.659303195092578509e-01
-1.745285775262168659e-01
-1.823368763515964275e-01
-1.893229429432640998e-01
-1.954600945815966606e-01
-2.007274102616360967e-01
-2.051098588911954290e-01
-2.085983833529113096e-01
-2.111899398248523740e-01
-2.128874920955068084e-01
-2.136999609521701704e-01
-2.136421290642721571e-01
-2.127345021224709143e-01
-2.110031273277397368e-01
-2.084793706496712584e-01
-2.051996545873191469e-01
-2.012051584666922355e-01
-1.965414835942163596e-01
-1.912582858528895091e-01
-1.854088785754437751e-01
-1.790498087547077177e-01
-1.722404098537670680e-01
-1.650423346559818372e-01
-1.575190717459733492e-01
-1.497354493362935135e-01
1.060660171779821276e-01
1.184527913424238271e-01
1.306382655688495542e-01
1.425517624255343563e-01
1.541237942723149013e-01
1.652865684825397530e-01
1.759744808179847797e-01
1.861245932120915436e-01
1.956770923347933566e-01
2.045757254578202122e-01
2.127682103116065593e-01
2.202066158224484371e-01
2.268477108398594955e-01
2.326532782074675620e-01
2.375903917944119370e-01
2.416316543860341226e-01
2.447553946305438821e-01
2.469458215500104359e-01
2.481931354470953699e-01
2.484935943709341288e-01
2.478495356439534003e-01
2.462693522935896773e-01
2.437674245762376235e-01
2.403640071226779140e-01
2.360850725720960996e-01
2.309621128930297029e-01
2.250318999116302510e-01
2.183362068780421994e-01
2.109214931981063523e-01
2.028385547377284659e-01
1.941421423689656534e-01
1.848905516681814132e-01
1.751451868956542257e-01
1.649701025811237953e-01
1.544315262094289043e-01
1.435973656433406631e-01
1.325367050358239596e-01
1.213192930704014849e-01
1.100150274253739041e-01
9.869343938494819224e-02
8.742318251762218329e-02
7.627152930949973597e-02
6.530387957781667863e-02
5.458328439831654916e-02
4.416998915994255204e-02
3.412099921251569856e-02
2.448967139879194843e-02
1.532533456286383489e-02
6.672941903822490750e-03
-1.427242201362158291e-03
-8.939918546787883891e-03
-1.583499054243614479e-02
-2.208776097775140557e-02
-2.767908663926560431e-02
-3.259548964111110003e-02
-3.682922465949432789e-02
-4.037830160058390738e-02
-4.324646357318030765e-02
-4.544312038039256818e-02
-4.698323808569603716e-02
-4.788718554559825979e-02
-4.818053913110003500e-02
-4.789384718068894625e-02
-4.706235603628877717e-02
-4.572569980804246093e-02
-4.392755629178068250e-02
-4.171527172238901487e-02
-3.913945728505543314e-02
-3.625356052272093316e-02
-3.311341497032080361e-02
-2.977677151311558523e-02
-2.630281510629819616e-02
-2.275167060504944619e-02
-1.918390153744913007e-02
-1.566000570649189044e-02
-1.223991153149346992e-02
-8.982479033230197918e-03
-5.945009331257702923e-03
-3.182766456305913261e-03
-7.485151859263836083e-04
1.307921511591619845e-03
2.940081990669932144e-03
4.105259141881562046e-03
4.764864249994615886e-03
4.884758666643479463e-03
4.435550714792749205e-03
3.392855509106645906e-03
1.737515661071678541e-03
-5.442188619517590586e-04
-3.460553140950201056e-03
-7.014053065427572342e-03
-1.120159520927249686e-02
-1.601436124327519639e-02
-2.143787696318605329e-02
-2.745209566950024271e-02
-3.403152529441554053e-02
-4.114539833527094959e-02
-4.875788332477890008e-02
-5.682833624905997416e-02
-6.531159001730478531e-02
-7.415827979417843885e-02
-8.331520173010124874e-02
-9.272570236737903704e-02
-1.023300957638124398e-01
-1.120661051616694825e-01
-1.218693258404292268e-01
-1.131673705627915805e+00
1.358587960592377186e+00
-1.151016473851213862e+00
3.395809814747879907e-01
-1.695520594703825712e-01
-1.783488713316405128e-01
-1.867441241256520279e-01
-1.946743807725853648e-01
-2.020785815873670788e-01
-2.088985120238387450e-01
-2.150792500915936767e-01
-2.205695900190753900e-01
-2.253224389165287000e-01
-2.292951833972721176e-01
-2.324500233439049657e-01
-2.347542702557622041e-01
-2.361806078832497380e-01
-2.367073131415912690e-01
-2.363184355987966723e-01
-2.350039341479997768e-01
-2.327597698003180948e-01
-2.295879538685489663e-01
-2.254965511517886823e-01
-2.204996380738410422e-01
-2.146172160714573951e-01
-2.078750808693778929e-01
-2.003046486152400552e-01
-1.919427401760981922e-01
-1.828313252170475356e-01
-1.730172279888326226e-01
-1.625517970429996018e-01
-1.514905413678973023e-01
-1.398927356945213196e-01
-1.278209979559182530e-01
-1.153408420957705294e-01
-1.025202096093030951e-01
-8.942898336130679360e-02
-7.613848736066720913e-02
-6.272097627726487545e-02
-4.924911856466678006e-02
-3.579547710007174866e-02
-2.243199127114091709e-02
-9.229464427479398825e-03
3.742939427236711969e-03
1.641818589789279664e-02
2.873184371117115665e-02
4.062253790397697684e-02
5.203237926767428911e-02
6.290736681090999816e-02
7.319776021065818594e-02
8.285841945111979689e-02
9.184910910146358576e-02
1.001347649542209811e-01
1.076857210343158122e-01
1.144778952920684212e-01
1.204929326097077119e-01
1.257183040775505245e-01
1.301473618305543645e-01
1.337793490758653614e-01
1.366193652846683926e-01
1.386782868644662881e-01
1.399726439682608403e-01
1.405244544323685230e-01
1.403610161622121100e-01
1.395146596028832287e-01
1.380224622361398978e-01
1.359259273354530562e-01
1.332706294835298289e-01
1.301058296103368705e-01
1.264840625420725895e-01
1.224607002610289402e-01
1.180934942612295036e-01
1.134421005437208502e-01
1.085675909272114242e-01
1.035319544533903346e-01
9.839759274092478580e-02
9.322681318726351585e-02
8.808132393260181825e-02
8.302173448561642188e-02
7.810706586592416900e-02
7.339427404402064370e-02
6.893779035631003582e-02
6.478908244147113527e-02
6.099623908589756061e-02
5.760358218146562070e-02
5.465130878984715557e-02
5.217516607562917852e-02
5.020616161734295368e-02
4.877031133314993494e-02
4.788842696841562330e-02
4.757594478796436932e-02
4.784279679878820912e-02
4.869332550178227803e-02
5.012624283623487442e-02
5.213463364085367535e-02
5.470600361267845269e-02
5.782237140292839639e-02
6.146040414928928552e-02
6.559159540995343485e-02
7.018248413845558364e-02
7.519491302248088038e-02
8.058632420680454655e-02
8.631009013264627494e-02
9.231587695520984682e-02
9.855003775011494938e-02
1.049560324896857827e-01
1.114748715634785448e-01
1.180455794355144000e-01
1.246056748748703841e-01
1.310916640677796119e-01
1.374395428191175217e-01
1.435853039799684094e-01
1.494654461963536296e-01
1.550174800624795624e-01
1.601804277801973098e-01
1.648953124744990673e-01
1.691056333925575472e-01
1.727578233203851954e-01
1.758016846858264925e-01
1.781908009783478575e-01
1.798829203036106938e-01
1.808403081027779025e-01
1.810300663011926714e-01
1.804244164067827505e-01
1.790009443532423195e-01
1.767428051746831874e-01
1.736388859047736100e-01
1.696839254120572349e-01
1.648785902117265723e-01
1.592295056301146761e-01
1.527492420389628403e-01
1.454562562195688691e-01
1.373747882595302006e-01
1.285347147243984245e-01
1.189713591805389714e-01
1.087252614712822807e-01
9.784190746357612767e-02
8.637142128439956323e-02
7.436822235282455895e-02
6.189064978270801543e-02
4.900055698038387197e-02
3.576287948958910973e-02
2.224517934045375928e-02
8.517169339046330723e-03
-5.349779112541605194e-03
-1.928314094953750488e-02
-3.320975131756504634e-02
-4.705632450318483068e-02
-6.074997400074273052e-02
-7.421872978542624899e-02
-8.739204888344720423e-02
-1.002013153812422175e-01
-1.125803260959132301e-01
-1.244657582384009753e-01
-1.357976155381146188e-01
-1.465196494619561141e-01
-1.565797523506279876e-01
-1.659303195092578509e-01
-1.745285775262168659e-01
-1.823368763515964275e-01
-1.893229429432640998e-01
-1.954600945815966606e-01
-2.007274102616360967e-01
-2.051098588911954290e-01
-2.085983833529113096e-01
-2.111899398248523740e-01
-2.128874920955068084e-01
-2.136999609521701704e-01
-2.136421290642721571e-01
-2.127345021224709143e-01
-2.110031273277397368e-01
-2.084793706496712584e-01
-2.051996545873191469e-01
-2.012051584666922355e-01
-1.965414835942163596e-01
-1.912582858528895091e-01
-1.854088785754437751e-01
-1.790498087547077177e-01
-1.722404098537670680e-01
-1.650423346559818372e-01
-1.575190717459733492e-01
-1.497354493362935135e-01
1.060660171779821276e-01
1.184527913424238271e-01
1.306382655688495542e-01
1.425517624255343563e-01
1.541237942723149013e-01
1.652865684825397530e-01
1.759744808179847797e-01
1.861245932120915436e-01
1.956770923347933566e-01
2.045757254578202122e-01
2.127682103116065593e-01
2.202066158224484371e-01
2.268477108398594955e-01
2.326532782074675620e-01
2.375903917944119370e-01
2.416316543860341226e-01
2.447553946305438821e-01
2.469458215500104359e-01
2.481931354470953699e-01
2.484935943709341288e-01
2.478495356439534003e-01
2.462693522935896773e-01
2.437674245762376235e-01
2.403640071226779140e-01
2.360850725720960996e-01
2.309621128930297029e-01
2.250318999116302510e-01
2.183362068780421994e-01
2.109214931981063523e-01
2.028385547377284659e-01
1.941421423689656534e-01
1.848905516681814132e-01
1.751451868956542257e-01
1.649701025811237953e-01
1.544315262094289043e-01
1.435973656433406631e-01
1.325367050358239596e-01
1.213192930704014849e-01
1.100150274253739041e-01
9.869343938494819224e-02
8.742318251762218329e-02
7.627152930949973597e-02
6.530387957781667863e-02
5.458328439831654916e-02
4.416998915994255204e-02
3.412099921251569856e-02
2.448967139879194843e-02
1.532533456286383489e-02
6.672941903822490750e-03
-1.427242201362158291e-03
-8.939918546787883891e-03
-1.583499054243614479e-02
-2.208776097775140557e-02
-2.767908663926560431e-02
-3.259548964111110003e-02
-3.682922465949432789e-02
-4.037830160058390738e-02
-4.324646357318030765e-02
-4.544312038039256818e-02
-4.698323808569603716e-02
-4.788718554559825979e-02
-4.818053913110003500e-02
-4.789384718068894625e-02
-4.706235603628877717e-02
-4.572569980804246093e-02
-4.392755629178068250e-02
-4.171527172238901487e-02
-3.913945728505543314e-02
-3.625356052272093316e-02
-3.311341497032080361e-02
-2.977677151311558523e-02
-2.630281510629819616e-02
-2.275167060504944619e-02
-1.918390153744913007e-02
-1.566000570649189044e-02
-1.223991153149346992e-02
-8.982479033230197918e-03
-5.945009331257702923e-03
-3.182766456305913261e-03
-7.485151859263836083e-04
1.307921511591619845e-03
2.940081990669932144e-03
4.105259141881562046e-03
4.764864249994615886e-03
4.884758666643479463e-03
4.435550714792749205e-03
3.392855509106645906e-03
1.737515661071678541e-03
-5.442188619517590586e-04
-3.460553140950201056e-03
-7.014053065427572342e-03
-1.120159520927249686e-02
-1.601436124327519639e-02
-2.143787696318605329e-02
-2.745209566950024271e-02
-3.403152529441554053e-02
-4.114539833527094959e-02
-4.875788332477890008e-02
-5.682833624905997416e-02
-6.531159001730478531e-02
-7.415827979417843885e-02
-8.331520173010124874e-02
-9.272570236737903704e-02
-1.023300957638124398e-01
-1.120661051616694825e-01
-1.218693258404292268e-01
-1.131673705627915805e+00
1.358587960592377186e+00
-1.151016473851213862e+00
3.395809814747879907e-01
-1.695520594703825712e-01
-1.783488713316405128e-01
-1.867441241256520279e-01
-1.946743807725853648e-01
-2.020785815873670788e-01
-2.088985120238387450e-01
-2.150792500915936767e-01
-2.205695900190753900e-01
-2.253224389165287000e-01
-2.292951833972721176e-01
-2.324500233439049657e-01
-2.347542702557622041e-01
-2.361806078832497380e-01
-2.367073131415912690e-01
-2.363184355987966723e-01
-2.350039341479997768e-01
-2.327597698003180948e-01
-2.295879538685489663e-01
-2.254965511517886823e-01
-2.204996380738410422e-01
-2.146172160714573951e-01
-2.078750808693778929e-01
-2.003046486152400552e-01
-1.919427401760981922e-01
-1.828313252170475356e-01
-1.730172279888326226e-01
-1.625517970429996018e-01
-1.514905413678973023e-01
-1.398927356945213196e-01
-1.278209979559182530e-01
-1.153408420957705294e-01
-1.025202096093030951e-01
-8.942898336130679360e-02
-7.613848736066720913e-02
-6.272097627726487545e-02
-4.924911856466678006e-02
-3.579547710007174866e-02
-2.243199127114091709e-02
-9.229464427479398825e-03
3.742939427236711969e-03
1.641818589789279664e-02
2.873184371117115665e-02
4.062253790397697684e-02
5.203237926767428911e-02
6.290736681090999816e-02
7.319776021065818594e-02
8.285841945111979689e-02
9.184910910146358576e-02
1.001347649542209811e-01
1.076857210343158122e-01
1.144778952920684212e-01
1.204929326097077119e-01
1.257183040775505245e-01
1.301473618305543645e-01
1.337793490758653614e-01
1.366193652846683926e-01
1.386782868644662881e-01
1.399726439682608403e-01
1.405244544323685230e-01
1.403610161622121100e-01
1.395146596028832287e-01
1.380224622361398978e-01
1.359259273354530562e-01
1.332706294835298289e-01
1.301058296103368705e-01
1.264840625420725895e-01
1.224607002610289402e-01
1.180934942612295036e-01
1.134421005437208502e-01
1.085675909272114242e-01
1.035319544533903346e-01
9.839759274092478580e-02
9.322681318726351585e-02
8.808132393260181825e-02
8.302173448561642188e-02
7.810706586592416900e-02
7.339427404402064370e-02
6.893779035631003582e-02
6.478908244147113527e-02
6.099623908589756061e-02
5.760358218146562070e-02
5.465130878984715557e-02
5.217516607562917852e-02
5.020616161734295368e-02
4.877031133314993494e-02
4.788842696841562330e-02
4.757594478796436932e-02
4.784279679878820912e-02
4.869332550178227803e-02
5.012624283623487442e-02
5.213463364085367535e-02
5.470600361267845269e-02
5.782237140292839639e-02
6.146040414928928552e-02
6.559159540995343485e-02
7.018248413845558364e-02
7.519491302248088038e-02
8.058632420680454655e-02
8.631009013264627494e-02
9.231587695520984682e-02
9.855003775011494938e-02
1.049560324896857827e-01
1.114748715634785448e-01
1.180455794355144000e-01
1.246056748748703841e-01
1.310916640677796119e-01
1.374395428191175217e-01
1.435853039799684094e-01
1.494654461963536296e-01
1.550174800624795624e-01
1.601804277801973098e-01
1.648953124744990673e-01
1.691056333925575472e-01
1.727578233203851954e-01
1.758016846858264925e-01
1.781908009783478575e-01
1.798829203036106938e-01
1.808403081027779025e-01
1.810300663011926714e-01
1.804244164067827505e-01
1.790009443532423195e-01
1.767428051746831874e-01
1.736388859047736100e-01
1.696839254120572349e-01
1.648785902117265723e-01
1.592295056301146761e-01
1.527492420389628403e-01
1.454562562195688691e-01
1.373747882595302006e-01
1.285347147243984245e-01
1.189713591805389714e-01
1.087252614712822807e-01
9.784190746357612767e-02
8.637142128439956323e-02
7.436822235282455895e-02
6.189064978270801543e-02
4.900055698038387197e-02
3.576287948958910973e-02
2.224517934045375928e-02
8.517169339046330723e-03
-5.349779112541605194e-03
-1.928314094953750488e-02
-3.320975131756504634e-02
-4.705632450318483068e-02
-6.074997400074273052e-02
-7.421872978542624899e-02
-8.739204888344720423e-02
-1.002013153812422175e-01
-1.125803260959132301e-01
-1.244657582384009753e-01
-1.357976155381146188e-01
-1.465196494619561141e-01
-1.565797523506279876e-01
-1.659303195092578509e-01
-1.745285775262168659e-01
-1.823368763515964275e-01
-1.893229429432640998e-01
-1.954600945815966606e-01
-2.007274102616360967e-01
-2.051098588911954290e-01
-2.085983833529113096e-01
-2.111899398248523740e-01
-2.128874920955068084e-01
-2.136999609521701704e-01
-2.136421290642721571e-01
-2.127345021224709143e-01
-2.110031273277397368e-01
-2.084793706496712584e-01
-2.051996545873191469e-01
-2.012051584666922355e-01
-1.965414835942163596e-01
-1.912582858528895091e-01
-1.854088785754437751e-01
-1.790498087547077177e-01
-1.722404098537670680e-01
-1.650423346559818372e-01
-1.575190717459733492e-01
-1.497354493362935135e-01
